### FSI tabel with V scale fac(1.000000) (2-Gauss potential) #####
4 2.92752 1.45353
8 2.93263 1.44808
12 2.91315 1.44566
16 2.86789 1.44378
20 2.8048 1.43822
24 2.73727 1.43282
28 2.66386 1.42622
32 2.58709 1.41885
36 2.50945 1.41081
40 2.43213 1.40209
44 2.35644 1.39281
48 2.28329 1.38307
52 2.21328 1.37291
56 2.14676 1.36242
60 2.08395 1.35167
64 2.02487 1.34073
68 1.96947 1.32965
72 1.91763 1.31849
76 1.86917 1.30729
80 1.82391 1.29609
84 1.78162 1.28495
88 1.74209 1.27388
92 1.70511 1.26291
96 1.67049 1.25208
100 1.63803 1.24139
104 1.60755 1.23087
108 1.57889 1.22053
112 1.5519 1.21039
116 1.52643 1.20044
120 1.50237 1.19069
124 1.4796 1.18116
128 1.45801 1.17185
132 1.43752 1.16275
136 1.41804 1.15387
140 1.39948 1.14521
144 1.3818 1.13678
148 1.36492 1.12856
152 1.34878 1.12057
156 1.33335 1.11279
160 1.31857 1.10523
164 1.3044 1.09788
168 1.29081 1.09075
172 1.27776 1.08382
176 1.26523 1.07711
180 1.25319 1.0706
184 1.24161 1.06429
188 1.23047 1.05818
192 1.21975 1.05228
196 1.20943 1.04656
200 1.1995 1.04104
204 1.18993 1.03571
208 1.18072 1.03056
212 1.17185 1.0256
216 1.16331 1.02081
220 1.15509 1.01621
224 1.14717 1.01178
228 1.13955 1.00752
232 1.13221 1.00342
236 1.12515 0.999493
240 1.11836 0.995725
244 1.11182 0.992115
248 1.10554 0.98866
252 1.09951 0.985355
256 1.09371 0.982198
260 1.08814 0.979185
264 1.08279 0.976313
268 1.07766 0.973578
272 1.07274 0.970977
276 1.06802 0.968507
280 1.0635 0.966163
284 1.05917 0.963942
288 1.05502 0.961841
292 1.05106 0.959856
296 1.04727 0.957985
300 1.04364 0.956222
304 1.04019 0.954566
308 1.03688 0.953012
312 1.03373 0.951557
316 1.03073 0.950198
320 1.02787 0.948932
324 1.02515 0.947755
328 1.02256 0.946664
332 1.0201 0.945656
336 1.01776 0.944728
340 1.01554 0.943877
344 1.01343 0.943099
348 1.01143 0.942393
352 1.00954 0.941755
356 1.00776 0.941181
360 1.00606 0.940671
364 1.00447 0.94022
368 1.00296 0.939827
372 1.00154 0.939488
376 1.0002 0.939202
380 0.998941 0.938966
384 0.997757 0.938777
388 0.996646 0.938633
392 0.995604 0.938533
396 0.994628 0.938473
400 0.993714 0.938452
404 0.992862 0.938469
408 0.992066 0.93852
412 0.991325 0.938604
416 0.990636 0.93872
420 0.989997 0.938865
424 0.989404 0.939038
428 0.988856 0.939238
432 0.988351 0.939462
436 0.987886 0.939709
440 0.987459 0.939978
444 0.987068 0.940268
448 0.986711 0.940576
452 0.986386 0.940903
456 0.986093 0.941246
460 0.985828 0.941604
464 0.98559 0.941976
468 0.985378 0.942362
472 0.98519 0.94276
476 0.985025 0.943169
480 0.984881 0.943588
484 0.984758 0.944017
488 0.984653 0.944454
492 0.984566 0.944899
496 0.984496 0.94535
500 0.984442 0.945808
504 0.984402 0.946271
508 0.984376 0.946738
512 0.984362 0.94721
516 0.98436 0.947685
520 0.984369 0.948163
524 0.984389 0.948644
528 0.984418 0.949126
532 0.984456 0.94961
536 0.984503 0.950094
540 0.984556 0.950579
544 0.984617 0.951064
548 0.984685 0.951549
552 0.984758 0.952033
556 0.984837 0.952516
560 0.984921 0.952998
564 0.985009 0.953478
568 0.985102 0.953956
572 0.985198 0.954432
576 0.985298 0.954905
580 0.985401 0.955376
584 0.985507 0.955844
588 0.985615 0.956309
592 0.985726 0.95677
596 0.985838 0.957229
600 0.985952 0.957684
604 0.986068 0.958135
608 0.986185 0.958582
612 0.986303 0.959026
616 0.986422 0.959465
620 0.986542 0.959901
624 0.986663 0.960332
628 0.986784 0.960759
632 0.986905 0.961182
636 0.987026 0.9616
640 0.987148 0.962014
644 0.987269 0.962424
648 0.98739 0.962829
652 0.987511 0.96323
656 0.987632 0.963626
660 0.987752 0.964017
664 0.987872 0.964404
668 0.987991 0.964787
672 0.98811 0.965165
676 0.988228 0.965538
680 0.988345 0.965907
684 0.988461 0.966272
688 0.988577 0.966631
692 0.988692 0.966987
696 0.988805 0.967338
700 0.988918 0.967684
704 0.98903 0.968026
708 0.989141 0.968364
712 0.989251 0.968698
716 0.98936 0.969027
720 0.989468 0.969352
724 0.989575 0.969672
728 0.989681 0.969988
732 0.989785 0.970301
736 0.989889 0.970609
740 0.989992 0.970913
744 0.990093 0.971213
748 0.990193 0.971509
752 0.990292 0.971801
756 0.990391 0.972089
760 0.990487 0.972373
764 0.990583 0.972653
768 0.990678 0.97293
772 0.990772 0.973203
776 0.990864 0.973472
780 0.990955 0.973738
784 0.991046 0.974
788 0.991135 0.974259
792 0.991223 0.974514
796 0.99131 0.974765
800 0.991396 0.975014
804 0.991481 0.975258
808 0.991565 0.9755
812 0.991647 0.975738
816 0.991729 0.975973
820 0.99181 0.976205
824 0.991889 0.976434
828 0.991968 0.97666
832 0.992046 0.976883
836 0.992122 0.977102
840 0.992198 0.977319
844 0.992273 0.977533
848 0.992346 0.977744
852 0.992419 0.977953
856 0.992491 0.978158
860 0.992562 0.978361
864 0.992632 0.978561
868 0.992701 0.978758
872 0.992769 0.978953
876 0.992836 0.979146
880 0.992903 0.979335
884 0.992968 0.979523
888 0.993033 0.979707
892 0.993097 0.97989
896 0.99316 0.98007
900 0.993222 0.980248
904 0.993284 0.980423
908 0.993345 0.980596
912 0.993405 0.980767
916 0.993464 0.980936
920 0.993522 0.981103
924 0.99358 0.981267
928 0.993637 0.981429
932 0.993693 0.98159
936 0.993748 0.981748
940 0.993803 0.981904
944 0.993857 0.982059
948 0.99391 0.982211
952 0.993963 0.982362
956 0.994015 0.98251
960 0.994066 0.982657
964 0.994117 0.982802
968 0.994167 0.982945
972 0.994217 0.983087
976 0.994266 0.983226
980 0.994314 0.983364
984 0.994362 0.983501
988 0.994409 0.983635
992 0.994455 0.983768
996 0.994501 0.9839
1000 0.994546 0.98403
1004 0.994591 0.984158
1008 0.994636 0.984285
1012 0.994679 0.98441
1016 0.994723 0.984534
1020 0.994765 0.984656
1024 0.994807 0.984777
1028 0.994849 0.984897
1032 0.99489 0.985015
1036 0.994931 0.985131
1040 0.994971 0.985247
1044 0.995011 0.985361
1048 0.99505 0.985473
1052 0.995089 0.985585
1056 0.995127 0.985695
1060 0.995165 0.985804
1064 0.995203 0.985912
1068 0.99524 0.986018
1072 0.995276 0.986123
1076 0.995312 0.986227
1080 0.995348 0.98633
1084 0.995383 0.986432
1088 0.995418 0.986532
1092 0.995453 0.986632
1096 0.995487 0.98673
1100 0.995521 0.986828
1104 0.995554 0.986924
1108 0.995587 0.987019
1112 0.99562 0.987113
1116 0.995652 0.987206
1120 0.995684 0.987299
1124 0.995716 0.98739
1128 0.995747 0.98748
1132 0.995778 0.987569
1136 0.995809 0.987657
1140 0.995839 0.987745
1144 0.995869 0.987831
1148 0.995898 0.987916
1152 0.995927 0.988001
1156 0.995956 0.988085
1160 0.995985 0.988167
1164 0.996013 0.988249
1168 0.996041 0.98833
1172 0.996069 0.988411
1176 0.996097 0.98849
1180 0.996124 0.988569
1184 0.996151 0.988647
1188 0.996177 0.988724
1192 0.996204 0.9888
1196 0.99623 0.988875
1200 0.996255 0.98895
1204 0.996281 0.989024
1208 0.996306 0.989097
1212 0.996331 0.98917
1216 0.996356 0.989241
1220 0.99638 0.989312
1224 0.996404 0.989383
1228 0.996428 0.989452
1232 0.996452 0.989521
1236 0.996476 0.98959
1240 0.996499 0.989657
1244 0.996522 0.989724
1248 0.996545 0.989791
1252 0.996567 0.989856
1256 0.99659 0.989921
1260 0.996612 0.989986
1264 0.996634 0.990049
1268 0.996656 0.990113
1272 0.996677 0.990175
1276 0.996698 0.990237
1280 0.996719 0.990299
1284 0.99674 0.990359
1288 0.996761 0.99042
1292 0.996782 0.990479
1296 0.996802 0.990539
1300 0.996822 0.990597
1304 0.996842 0.990655
1308 0.996862 0.990713
1312 0.996881 0.99077
1316 0.9969 0.990826
1320 0.99692 0.990882
1324 0.996939 0.990937
1328 0.996957 0.990992
1332 0.996976 0.991047
1336 0.996995 0.991101
1340 0.997013 0.991154
1344 0.997031 0.991207
1348 0.997049 0.991259
1352 0.997067 0.991311
1356 0.997084 0.991363
1360 0.997102 0.991414
1364 0.997119 0.991465
1368 0.997136 0.991515
1372 0.997153 0.991565
1376 0.99717 0.991614
1380 0.997187 0.991663
1384 0.997204 0.991711
1388 0.99722 0.991759
1392 0.997236 0.991807
1396 0.997252 0.991854
1400 0.997268 0.991901
1404 0.997284 0.991947
1408 0.9973 0.991993
1412 0.997315 0.992039
1416 0.997331 0.992084
1420 0.997346 0.992129
1424 0.997361 0.992173
1428 0.997376 0.992217
1432 0.997391 0.992261
1436 0.997406 0.992304
1440 0.997421 0.992347
1444 0.997435 0.99239
1448 0.99745 0.992432
1452 0.997464 0.992474
1456 0.997478 0.992516
1460 0.997492 0.992557
1464 0.997506 0.992598
1468 0.99752 0.992638
1472 0.997534 0.992678
1476 0.997547 0.992718
1480 0.997561 0.992758
1484 0.997574 0.992797
1488 0.997587 0.992836
1492 0.9976 0.992874
1496 0.997614 0.992913
1500 0.997626 0.992951
1504 0.997639 0.992988
1508 0.997652 0.993026
1512 0.997665 0.993063
1516 0.997677 0.993099
1520 0.99769 0.993136
1524 0.997702 0.993172
1528 0.997714 0.993208
1532 0.997726 0.993244
1536 0.997738 0.993279
1540 0.99775 0.993314
1544 0.997762 0.993349
1548 0.997774 0.993383
1552 0.997785 0.993418
1556 0.997797 0.993452
1560 0.997808 0.993485
1564 0.99782 0.993519
1568 0.997831 0.993552
1572 0.997842 0.993585
1576 0.997853 0.993617
1580 0.997864 0.99365
1584 0.997875 0.993682
1588 0.997886 0.993714
1592 0.997897 0.993746
1596 0.997908 0.993777
1600 0.997918 0.993808
1604 0.997929 0.993839
1608 0.997939 0.99387
1612 0.997949 0.993901
1616 0.99796 0.993931
1620 0.99797 0.993961
1624 0.99798 0.993991
1628 0.99799 0.994021
1632 0.998 0.99405
1636 0.99801 0.994079
1640 0.99802 0.994108
1644 0.99803 0.994137
1648 0.998039 0.994166
1652 0.998049 0.994194
1656 0.998058 0.994222
1660 0.998068 0.99425
1664 0.998077 0.994278
1668 0.998087 0.994305
1672 0.998096 0.994333
1676 0.998105 0.99436
1680 0.998114 0.994387
1684 0.998123 0.994413
1688 0.998132 0.99444
1692 0.998141 0.994466
1696 0.99815 0.994492
1700 0.998159 0.994518
1704 0.998168 0.994544
1708 0.998176 0.99457
1712 0.998185 0.994595
1716 0.998194 0.994621
1720 0.998202 0.994646
1724 0.998211 0.994671
1728 0.998219 0.994695
1732 0.998227 0.99472
1736 0.998236 0.994744
1740 0.998244 0.994769
1744 0.998252 0.994793
1748 0.99826 0.994817
1752 0.998268 0.99484
1756 0.998276 0.994864
1760 0.998284 0.994887
1764 0.998292 0.994911
1768 0.9983 0.994934
1772 0.998307 0.994957
1776 0.998315 0.994979
1780 0.998323 0.995002
1784 0.99833 0.995025
1788 0.998338 0.995047
1792 0.998345 0.995069
1796 0.998353 0.995091
1800 0.99836 0.995113
1804 0.998368 0.995135
1808 0.998375 0.995156
1812 0.998382 0.995178
1816 0.998389 0.995199
1820 0.998396 0.99522
1824 0.998404 0.995241
1828 0.998411 0.995262
1832 0.998418 0.995283
1836 0.998425 0.995303
1840 0.998432 0.995324
1844 0.998438 0.995344
1848 0.998445 0.995364
1852 0.998452 0.995384
1856 0.998459 0.995404
1860 0.998465 0.995424
1864 0.998472 0.995444
1868 0.998479 0.995463
1872 0.998485 0.995483
1876 0.998492 0.995502
1880 0.998498 0.995521
1884 0.998505 0.99554
1888 0.998511 0.995559
1892 0.998517 0.995578
1896 0.998524 0.995597
1900 0.99853 0.995615
1904 0.998536 0.995634
1908 0.998542 0.995652
1912 0.998549 0.995671
1916 0.998555 0.995689
1920 0.998561 0.995707
1924 0.998567 0.995725
1928 0.998573 0.995742
1932 0.998579 0.99576
1936 0.998585 0.995778
1940 0.998591 0.995795
1944 0.998596 0.995812
1948 0.998602 0.99583
1952 0.998608 0.995847
1956 0.998614 0.995864
1960 0.99862 0.995881
1964 0.998625 0.995897
1968 0.998631 0.995914
1972 0.998636 0.995931
1976 0.998642 0.995947
1980 0.998648 0.995964
1984 0.998653 0.99598
1988 0.998658 0.995996
1992 0.998664 0.996012
1996 0.998669 0.996028
