### FSI tabel with V scale fac(1.333333) (2-Gauss potential) #####
4 10.1275 3.90482
8 7.33128 3.9206
12 5.92555 3.86567
16 5.1421 3.74812
20 4.43191 3.60186
24 3.8846 3.4491
28 3.45548 3.29204
32 3.12734 3.13613
36 2.87146 2.98629
40 2.67012 2.84453
44 2.50971 2.71235
48 2.37999 2.59039
52 2.27361 2.4786
56 2.18519 2.37661
60 2.11075 2.28379
64 2.04728 2.19943
68 1.99252 2.12277
72 1.94474 2.05306
76 1.90261 1.98958
80 1.86508 1.93167
84 1.83134 1.87872
88 1.80072 1.83019
92 1.77271 1.78559
96 1.7469 1.7445
100 1.72293 1.70652
104 1.70053 1.67133
108 1.67948 1.63863
112 1.65958 1.60816
116 1.64069 1.57968
120 1.62267 1.55301
124 1.60541 1.52795
128 1.58883 1.50436
132 1.57286 1.48211
136 1.55743 1.46106
140 1.54248 1.44112
144 1.52799 1.42218
148 1.5139 1.40417
152 1.50018 1.38702
156 1.48682 1.37066
160 1.47379 1.35502
164 1.46107 1.34007
168 1.44865 1.32575
172 1.43652 1.31202
176 1.42466 1.29885
180 1.41306 1.28621
184 1.40172 1.27406
188 1.39064 1.26238
192 1.3798 1.25114
196 1.3692 1.24033
200 1.35884 1.22992
204 1.34872 1.21989
208 1.33883 1.21024
212 1.32917 1.20094
216 1.31974 1.19197
220 1.31053 1.18334
224 1.30155 1.17502
228 1.29279 1.16701
232 1.28426 1.15929
236 1.27593 1.15186
240 1.26783 1.1447
244 1.25994 1.13781
248 1.25226 1.13117
252 1.24479 1.12479
256 1.23753 1.11865
260 1.23047 1.11274
264 1.22362 1.10706
268 1.21696 1.10161
272 1.2105 1.09636
276 1.20424 1.09133
280 1.19816 1.0865
284 1.19227 1.08186
288 1.18656 1.07742
292 1.18103 1.07316
296 1.17568 1.06907
300 1.1705 1.06516
304 1.16549 1.06142
308 1.16064 1.05784
312 1.15595 1.05441
316 1.15143 1.05114
320 1.14705 1.04801
324 1.14282 1.04503
328 1.13874 1.04218
332 1.1348 1.03946
336 1.13099 1.03687
340 1.12732 1.0344
344 1.12378 1.03205
348 1.12036 1.02981
352 1.11706 1.02768
356 1.11388 1.02566
360 1.11082 1.02374
364 1.10786 1.02191
368 1.10501 1.02018
372 1.10226 1.01854
376 1.09961 1.01698
380 1.09705 1.01551
384 1.09459 1.01411
388 1.09221 1.01279
392 1.08992 1.01155
396 1.08771 1.01037
400 1.08558 1.00925
404 1.08353 1.0082
408 1.08155 1.00721
412 1.07964 1.00628
416 1.07779 1.0054
420 1.07601 1.00457
424 1.07429 1.0038
428 1.07263 1.00307
432 1.07103 1.00238
436 1.06948 1.00174
440 1.06799 1.00114
444 1.06654 1.00057
448 1.06515 1.00004
452 1.0638 0.999551
456 1.06249 0.99909
460 1.06123 0.998661
464 1.06001 0.998261
468 1.05882 0.997889
472 1.05768 0.997543
476 1.05657 0.997222
480 1.05549 0.996924
484 1.05445 0.996648
488 1.05344 0.996394
492 1.05246 0.996159
496 1.0515 0.995943
500 1.05058 0.995744
504 1.04968 0.995561
508 1.04881 0.995395
512 1.04797 0.995242
516 1.04715 0.995104
520 1.04635 0.994978
524 1.04557 0.994865
528 1.04481 0.994762
532 1.04408 0.994671
536 1.04336 0.994589
540 1.04266 0.994517
544 1.04198 0.994454
548 1.04132 0.994398
552 1.04068 0.994351
556 1.04005 0.99431
560 1.03944 0.994277
564 1.03884 0.994249
568 1.03826 0.994228
572 1.03769 0.994212
576 1.03713 0.9942
580 1.03659 0.994194
584 1.03606 0.994192
588 1.03554 0.994194
592 1.03504 0.9942
596 1.03455 0.994209
600 1.03406 0.994222
604 1.03359 0.994238
608 1.03313 0.994256
612 1.03268 0.994277
616 1.03224 0.9943
620 1.03181 0.994326
624 1.03138 0.994353
628 1.03097 0.994383
632 1.03056 0.994414
636 1.03017 0.994447
640 1.02978 0.994481
644 1.0294 0.994516
648 1.02903 0.994552
652 1.02866 0.99459
656 1.0283 0.994628
660 1.02795 0.994667
664 1.02761 0.994707
668 1.02727 0.994748
672 1.02694 0.994789
676 1.02662 0.994831
680 1.0263 0.994873
684 1.02599 0.994916
688 1.02568 0.994958
692 1.02538 0.995001
696 1.02508 0.995045
700 1.02479 0.995088
704 1.02451 0.995132
708 1.02423 0.995175
712 1.02396 0.995219
716 1.02369 0.995262
720 1.02342 0.995306
724 1.02316 0.995349
728 1.02291 0.995392
732 1.02265 0.995436
736 1.02241 0.995479
740 1.02216 0.995521
744 1.02193 0.995564
748 1.02169 0.995606
752 1.02146 0.995648
756 1.02123 0.99569
760 1.02101 0.995732
764 1.02079 0.995773
768 1.02058 0.995814
772 1.02036 0.995855
776 1.02015 0.995895
780 1.01995 0.995935
784 1.01975 0.995974
788 1.01955 0.996014
792 1.01935 0.996052
796 1.01916 0.996091
800 1.01897 0.996129
804 1.01878 0.996167
808 1.0186 0.996204
812 1.01841 0.996241
816 1.01824 0.996278
820 1.01806 0.996314
824 1.01789 0.99635
828 1.01771 0.996385
832 1.01755 0.99642
836 1.01738 0.996454
840 1.01722 0.996489
844 1.01705 0.996523
848 1.0169 0.996556
852 1.01674 0.996589
856 1.01658 0.996622
860 1.01643 0.996654
864 1.01628 0.996686
868 1.01613 0.996717
872 1.01599 0.996748
876 1.01584 0.996779
880 1.0157 0.996809
884 1.01556 0.996839
888 1.01542 0.996869
892 1.01529 0.996898
896 1.01515 0.996927
900 1.01502 0.996956
904 1.01489 0.996984
908 1.01476 0.997012
912 1.01463 0.997039
916 1.0145 0.997066
920 1.01438 0.997093
924 1.01426 0.99712
928 1.01414 0.997146
932 1.01402 0.997171
936 1.0139 0.997197
940 1.01378 0.997222
944 1.01367 0.997247
948 1.01355 0.997271
952 1.01344 0.997296
956 1.01333 0.99732
960 1.01322 0.997343
964 1.01311 0.997366
968 1.01301 0.997389
972 1.0129 0.997412
976 1.0128 0.997435
980 1.01269 0.997457
984 1.01259 0.997479
988 1.01249 0.9975
992 1.01239 0.997522
996 1.01229 0.997543
1000 1.0122 0.997564
1004 1.0121 0.997584
1008 1.01201 0.997604
1012 1.01191 0.997624
1016 1.01182 0.997644
1020 1.01173 0.997664
1024 1.01164 0.997683
1028 1.01155 0.997702
1032 1.01146 0.997721
1036 1.01137 0.99774
1040 1.01129 0.997758
1044 1.0112 0.997776
1048 1.01112 0.997794
1052 1.01103 0.997812
1056 1.01095 0.99783
1060 1.01087 0.997847
1064 1.01079 0.997864
1068 1.01071 0.997881
1072 1.01063 0.997898
1076 1.01055 0.997914
1080 1.01047 0.997931
1084 1.0104 0.997947
1088 1.01032 0.997963
1092 1.01025 0.997978
1096 1.01017 0.997994
1100 1.0101 0.998009
1104 1.01003 0.998025
1108 1.00996 0.99804
1112 1.00989 0.998055
1116 1.00982 0.998069
1120 1.00975 0.998084
1124 1.00968 0.998098
1128 1.00961 0.998112
1132 1.00954 0.998127
1136 1.00948 0.99814
1140 1.00941 0.998154
1144 1.00935 0.998168
1148 1.00928 0.998181
1152 1.00922 0.998194
1156 1.00916 0.998208
1160 1.00909 0.998221
1164 1.00903 0.998233
1168 1.00897 0.998246
1172 1.00891 0.998259
1176 1.00885 0.998271
1180 1.00879 0.998284
1184 1.00873 0.998296
1188 1.00867 0.998308
1192 1.00862 0.99832
1196 1.00856 0.998331
1200 1.0085 0.998343
1204 1.00845 0.998355
1208 1.00839 0.998366
1212 1.00834 0.998377
1216 1.00828 0.998389
1220 1.00823 0.9984
1224 1.00818 0.998411
1228 1.00812 0.998421
1232 1.00807 0.998432
1236 1.00802 0.998443
1240 1.00797 0.998453
1244 1.00792 0.998464
1248 1.00787 0.998474
1252 1.00782 0.998484
1256 1.00777 0.998494
1260 1.00772 0.998504
1264 1.00767 0.998514
1268 1.00762 0.998524
1272 1.00757 0.998534
1276 1.00753 0.998543
1280 1.00748 0.998553
1284 1.00744 0.998562
1288 1.00739 0.998571
1292 1.00734 0.998581
1296 1.0073 0.99859
1300 1.00725 0.998599
1304 1.00721 0.998608
1308 1.00717 0.998617
1312 1.00712 0.998625
1316 1.00708 0.998634
1320 1.00704 0.998643
1324 1.007 0.998651
1328 1.00695 0.99866
1332 1.00691 0.998668
1336 1.00687 0.998676
1340 1.00683 0.998684
1344 1.00679 0.998693
1348 1.00675 0.998701
1352 1.00671 0.998709
1356 1.00667 0.998717
1360 1.00663 0.998724
1364 1.00659 0.998732
1368 1.00656 0.99874
1372 1.00652 0.998747
1376 1.00648 0.998755
1380 1.00644 0.998763
1384 1.00641 0.99877
1388 1.00637 0.998777
1392 1.00633 0.998785
1396 1.0063 0.998792
1400 1.00626 0.998799
1404 1.00623 0.998806
1408 1.00619 0.998813
1412 1.00616 0.99882
1416 1.00612 0.998827
1420 1.00609 0.998834
1424 1.00605 0.998841
1428 1.00602 0.998847
1432 1.00599 0.998854
1436 1.00595 0.99886
1440 1.00592 0.998867
1444 1.00589 0.998874
1448 1.00586 0.99888
1452 1.00582 0.998886
1456 1.00579 0.998893
1460 1.00576 0.998899
1464 1.00573 0.998905
1468 1.0057 0.998911
1472 1.00567 0.998917
1476 1.00564 0.998923
1480 1.00561 0.998929
1484 1.00558 0.998935
1488 1.00555 0.998941
1492 1.00552 0.998947
1496 1.00549 0.998953
1500 1.00546 0.998959
1504 1.00543 0.998964
1508 1.0054 0.99897
1512 1.00537 0.998976
1516 1.00535 0.998981
1520 1.00532 0.998987
1524 1.00529 0.998992
1528 1.00526 0.998998
1532 1.00524 0.999003
1536 1.00521 0.999008
1540 1.00518 0.999014
1544 1.00515 0.999019
1548 1.00513 0.999024
1552 1.0051 0.999029
1556 1.00508 0.999035
1560 1.00505 0.99904
1564 1.00502 0.999045
1568 1.005 0.99905
1572 1.00497 0.999055
1576 1.00495 0.99906
1580 1.00492 0.999064
1584 1.0049 0.999069
1588 1.00487 0.999074
1592 1.00485 0.999079
1596 1.00483 0.999084
1600 1.0048 0.999088
1604 1.00478 0.999093
1608 1.00475 0.999098
1612 1.00473 0.999102
1616 1.00471 0.999107
1620 1.00468 0.999111
1624 1.00466 0.999116
1628 1.00464 0.99912
1632 1.00462 0.999125
1636 1.00459 0.999129
1640 1.00457 0.999133
1644 1.00455 0.999138
1648 1.00453 0.999142
1652 1.00451 0.999146
1656 1.00448 0.999151
1660 1.00446 0.999155
1664 1.00444 0.999159
1668 1.00442 0.999163
1672 1.0044 0.999167
1676 1.00438 0.999171
1680 1.00436 0.999175
1684 1.00434 0.999179
1688 1.00432 0.999183
1692 1.0043 0.999187
1696 1.00428 0.999191
1700 1.00426 0.999195
1704 1.00424 0.999199
1708 1.00422 0.999203
1712 1.0042 0.999207
1716 1.00418 0.99921
1720 1.00416 0.999214
1724 1.00414 0.999218
1728 1.00412 0.999222
1732 1.0041 0.999225
1736 1.00408 0.999229
1740 1.00406 0.999233
1744 1.00405 0.999236
1748 1.00403 0.99924
1752 1.00401 0.999243
1756 1.00399 0.999247
1760 1.00397 0.99925
1764 1.00395 0.999254
1768 1.00394 0.999257
1772 1.00392 0.999261
1776 1.0039 0.999264
1780 1.00388 0.999267
1784 1.00387 0.999271
1788 1.00385 0.999274
1792 1.00383 0.999277
1796 1.00382 0.999281
1800 1.0038 0.999284
1804 1.00378 0.999287
1808 1.00376 0.99929
1812 1.00375 0.999294
1816 1.00373 0.999297
1820 1.00372 0.9993
1824 1.0037 0.999303
1828 1.00368 0.999306
1832 1.00367 0.999309
1836 1.00365 0.999312
1840 1.00364 0.999315
1844 1.00362 0.999318
1848 1.0036 0.999321
1852 1.00359 0.999324
1856 1.00357 0.999327
1860 1.00356 0.99933
1864 1.00354 0.999333
1868 1.00353 0.999336
1872 1.00351 0.999339
1876 1.0035 0.999342
1880 1.00348 0.999345
1884 1.00347 0.999348
1888 1.00345 0.99935
1892 1.00344 0.999353
1896 1.00342 0.999356
1900 1.00341 0.999359
1904 1.0034 0.999362
1908 1.00338 0.999364
1912 1.00337 0.999367
1916 1.00335 0.99937
1920 1.00334 0.999372
1924 1.00333 0.999375
1928 1.00331 0.999378
1932 1.0033 0.99938
1936 1.00329 0.999383
1940 1.00327 0.999385
1944 1.00326 0.999388
1948 1.00325 0.999391
1952 1.00323 0.999393
1956 1.00322 0.999396
1960 1.00321 0.999398
1964 1.00319 0.999401
1968 1.00318 0.999403
1972 1.00317 0.999406
1976 1.00315 0.999408
1980 1.00314 0.99941
1984 1.00313 0.999413
1988 1.00312 0.999415
1992 1.0031 0.999418
1996 1.00309 0.99942
