### FSI tabel with V scale fac(1.366667) (2-Gauss potential) #####
4 4.10643 4.72876
8 3.31943 4.75107
12 2.96695 4.65012
16 2.8329 4.449
20 2.66339 4.21279
24 2.52027 3.97274
28 2.39136 3.73525
32 2.28446 3.50795
36 2.1941 3.29687
40 2.11817 3.10361
44 2.05429 2.92877
48 2.00006 2.77179
52 1.95358 2.63145
56 1.91336 2.50622
60 1.87817 2.39453
64 1.84706 2.29482
68 1.81923 2.20566
72 1.79409 2.12572
76 1.77114 2.05386
80 1.74999 1.98904
84 1.73033 1.93038
88 1.71189 1.87711
92 1.69448 1.82854
96 1.67793 1.78411
100 1.66211 1.74332
104 1.64689 1.70574
108 1.6322 1.67099
112 1.61796 1.63875
116 1.6041 1.60875
120 1.59059 1.58074
124 1.57737 1.55452
128 1.56442 1.5299
132 1.55171 1.50672
136 1.53922 1.48485
140 1.52694 1.46416
144 1.51485 1.44456
148 1.50294 1.42593
152 1.4912 1.40821
156 1.47964 1.39132
160 1.46824 1.3752
164 1.45701 1.35979
168 1.44593 1.34503
172 1.43503 1.3309
176 1.42428 1.31734
180 1.41371 1.30433
184 1.40329 1.29182
188 1.39305 1.2798
192 1.38298 1.26824
196 1.37308 1.2571
200 1.36336 1.24639
204 1.35381 1.23607
208 1.34444 1.22612
212 1.33526 1.21654
216 1.32626 1.2073
220 1.31744 1.1984
224 1.30881 1.18982
228 1.30036 1.18155
232 1.2921 1.17359
236 1.28403 1.16591
240 1.27616 1.15851
244 1.26846 1.15138
248 1.26096 1.14452
252 1.25365 1.13791
256 1.24652 1.13155
260 1.23958 1.12543
264 1.23282 1.11954
268 1.22625 1.11387
272 1.21986 1.10843
276 1.21365 1.1032
280 1.20762 1.09817
284 1.20176 1.09335
288 1.19608 1.08871
292 1.19056 1.08427
296 1.18521 1.08001
300 1.18003 1.07592
304 1.17501 1.072
308 1.17014 1.06825
312 1.16543 1.06466
316 1.16088 1.06123
320 1.15646 1.05794
324 1.1522 1.0548
328 1.14807 1.0518
332 1.14408 1.04893
336 1.14022 1.04619
340 1.13649 1.04358
344 1.13289 1.04109
348 1.12941 1.03872
352 1.12605 1.03645
356 1.1228 1.0343
360 1.11967 1.03225
364 1.11664 1.0303
368 1.11372 1.02844
372 1.11089 1.02668
376 1.10817 1.025
380 1.10554 1.02341
384 1.10299 1.0219
388 1.10054 1.02047
392 1.09817 1.01911
396 1.09588 1.01782
400 1.09367 1.0166
404 1.09154 1.01544
408 1.08947 1.01435
412 1.08748 1.01331
416 1.08555 1.01234
420 1.08369 1.01141
424 1.08189 1.01054
428 1.08015 1.00972
432 1.07847 1.00894
436 1.07684 1.0082
440 1.07526 1.00751
444 1.07373 1.00686
448 1.07226 1.00625
452 1.07083 1.00567
456 1.06944 1.00512
460 1.0681 1.00461
464 1.0668 1.00413
468 1.06553 1.00368
472 1.06431 1.00325
476 1.06312 1.00286
480 1.06197 1.00248
484 1.06085 1.00213
488 1.05976 1.0018
492 1.05871 1.0015
496 1.05768 1.00121
500 1.05669 1.00094
504 1.05572 1.00069
508 1.05477 1.00045
512 1.05386 1.00024
516 1.05297 1.00003
520 1.0521 0.999841
524 1.05125 0.999664
528 1.05043 0.999499
532 1.04962 0.999345
536 1.04884 0.999203
540 1.04808 0.999071
544 1.04734 0.998948
548 1.04661 0.998835
552 1.0459 0.99873
556 1.04521 0.998634
560 1.04454 0.998545
564 1.04388 0.998463
568 1.04324 0.998387
572 1.04261 0.998318
576 1.042 0.998255
580 1.0414 0.998198
584 1.04081 0.998145
588 1.04024 0.998098
592 1.03968 0.998055
596 1.03913 0.998016
600 1.03859 0.997982
604 1.03807 0.997951
608 1.03756 0.997923
612 1.03705 0.997899
616 1.03656 0.997878
620 1.03608 0.99786
624 1.03561 0.997845
628 1.03515 0.997832
632 1.0347 0.997821
636 1.03425 0.997813
640 1.03382 0.997807
644 1.03339 0.997802
648 1.03297 0.9978
652 1.03257 0.997799
656 1.03216 0.9978
660 1.03177 0.997802
664 1.03138 0.997805
668 1.03101 0.99781
672 1.03063 0.997815
676 1.03027 0.997822
680 1.02991 0.99783
684 1.02956 0.997839
688 1.02922 0.997848
692 1.02888 0.997859
696 1.02854 0.99787
700 1.02822 0.997881
704 1.0279 0.997894
708 1.02758 0.997906
712 1.02727 0.99792
716 1.02697 0.997933
720 1.02667 0.997948
724 1.02638 0.997962
728 1.02609 0.997977
732 1.0258 0.997992
736 1.02552 0.998008
740 1.02525 0.998023
744 1.02498 0.998039
748 1.02471 0.998055
752 1.02445 0.998071
756 1.0242 0.998088
760 1.02394 0.998104
764 1.02369 0.99812
768 1.02345 0.998137
772 1.02321 0.998153
776 1.02297 0.99817
780 1.02274 0.998187
784 1.02251 0.998203
788 1.02228 0.99822
792 1.02206 0.998236
796 1.02184 0.998253
800 1.02163 0.998269
804 1.02141 0.998286
808 1.0212 0.998302
812 1.021 0.998318
816 1.02079 0.998334
820 1.02059 0.99835
824 1.0204 0.998366
828 1.0202 0.998382
832 1.02001 0.998398
836 1.01982 0.998413
840 1.01964 0.998429
844 1.01945 0.998444
848 1.01927 0.998459
852 1.01909 0.998474
856 1.01892 0.998489
860 1.01874 0.998504
864 1.01857 0.998519
868 1.0184 0.998533
872 1.01824 0.998548
876 1.01807 0.998562
880 1.01791 0.998576
884 1.01775 0.99859
888 1.0176 0.998603
892 1.01744 0.998617
896 1.01729 0.99863
900 1.01714 0.998644
904 1.01699 0.998657
908 1.01684 0.99867
912 1.01669 0.998683
916 1.01655 0.998695
920 1.01641 0.998708
924 1.01627 0.99872
928 1.01613 0.998732
932 1.01599 0.998744
936 1.01586 0.998756
940 1.01573 0.998768
944 1.0156 0.99878
948 1.01547 0.998791
952 1.01534 0.998803
956 1.01521 0.998814
960 1.01509 0.998825
964 1.01496 0.998836
968 1.01484 0.998846
972 1.01472 0.998857
976 1.0146 0.998868
980 1.01449 0.998878
984 1.01437 0.998888
988 1.01425 0.998898
992 1.01414 0.998908
996 1.01403 0.998918
1000 1.01392 0.998928
1004 1.01381 0.998938
1008 1.0137 0.998947
1012 1.0136 0.998956
1016 1.01349 0.998966
1020 1.01339 0.998975
1024 1.01328 0.998984
1028 1.01318 0.998993
1032 1.01308 0.999001
1036 1.01298 0.99901
1040 1.01288 0.999019
1044 1.01278 0.999027
1048 1.01269 0.999035
1052 1.01259 0.999044
1056 1.0125 0.999052
1060 1.01241 0.99906
1064 1.01231 0.999068
1068 1.01222 0.999076
1072 1.01213 0.999083
1076 1.01204 0.999091
1080 1.01196 0.999099
1084 1.01187 0.999106
1088 1.01178 0.999113
1092 1.0117 0.999121
1096 1.01161 0.999128
1100 1.01153 0.999135
1104 1.01145 0.999142
1108 1.01137 0.999149
1112 1.01129 0.999156
1116 1.01121 0.999163
1120 1.01113 0.999169
1124 1.01105 0.999176
1128 1.01097 0.999182
1132 1.0109 0.999189
1136 1.01082 0.999195
1140 1.01074 0.999202
1144 1.01067 0.999208
1148 1.0106 0.999214
1152 1.01052 0.99922
1156 1.01045 0.999226
1160 1.01038 0.999232
1164 1.01031 0.999238
1168 1.01024 0.999244
1172 1.01017 0.999249
1176 1.0101 0.999255
1180 1.01004 0.999261
1184 1.00997 0.999266
1188 1.0099 0.999272
1192 1.00984 0.999277
1196 1.00977 0.999282
1200 1.00971 0.999288
1204 1.00964 0.999293
1208 1.00958 0.999298
1212 1.00952 0.999303
1216 1.00946 0.999308
1220 1.00939 0.999313
1224 1.00933 0.999318
1228 1.00927 0.999323
1232 1.00921 0.999328
1236 1.00916 0.999333
1240 1.0091 0.999337
1244 1.00904 0.999342
1248 1.00898 0.999347
1252 1.00892 0.999351
1256 1.00887 0.999356
1260 1.00881 0.99936
1264 1.00876 0.999365
1268 1.0087 0.999369
1272 1.00865 0.999373
1276 1.0086 0.999378
1280 1.00854 0.999382
1284 1.00849 0.999386
1288 1.00844 0.99939
1292 1.00839 0.999395
1296 1.00833 0.999399
1300 1.00828 0.999403
1304 1.00823 0.999407
1308 1.00818 0.999411
1312 1.00813 0.999415
1316 1.00808 0.999418
1320 1.00804 0.999422
1324 1.00799 0.999426
1328 1.00794 0.99943
1332 1.00789 0.999434
1336 1.00785 0.999437
1340 1.0078 0.999441
1344 1.00775 0.999444
1348 1.00771 0.999448
1352 1.00766 0.999452
1356 1.00762 0.999455
1360 1.00757 0.999459
1364 1.00753 0.999462
1368 1.00749 0.999465
1372 1.00744 0.999469
1376 1.0074 0.999472
1380 1.00736 0.999475
1384 1.00732 0.999479
1388 1.00727 0.999482
1392 1.00723 0.999485
1396 1.00719 0.999488
1400 1.00715 0.999492
1404 1.00711 0.999495
1408 1.00707 0.999498
1412 1.00703 0.999501
1416 1.00699 0.999504
1420 1.00695 0.999507
1424 1.00691 0.99951
1428 1.00687 0.999513
1432 1.00684 0.999516
1436 1.0068 0.999519
1440 1.00676 0.999521
1444 1.00672 0.999524
1448 1.00669 0.999527
1452 1.00665 0.99953
1456 1.00661 0.999533
1460 1.00658 0.999535
1464 1.00654 0.999538
1468 1.00651 0.999541
1472 1.00647 0.999544
1476 1.00644 0.999546
1480 1.0064 0.999549
1484 1.00637 0.999551
1488 1.00634 0.999554
1492 1.0063 0.999557
1496 1.00627 0.999559
1500 1.00623 0.999562
1504 1.0062 0.999564
1508 1.00617 0.999567
1512 1.00614 0.999569
1516 1.0061 0.999571
1520 1.00607 0.999574
1524 1.00604 0.999576
1528 1.00601 0.999579
1532 1.00598 0.999581
1536 1.00595 0.999583
1540 1.00592 0.999586
1544 1.00589 0.999588
1548 1.00586 0.99959
1552 1.00583 0.999592
1556 1.0058 0.999595
1560 1.00577 0.999597
1564 1.00574 0.999599
1568 1.00571 0.999601
1572 1.00568 0.999603
1576 1.00565 0.999606
1580 1.00562 0.999608
1584 1.00559 0.99961
1588 1.00557 0.999612
1592 1.00554 0.999614
1596 1.00551 0.999616
1600 1.00548 0.999618
1604 1.00546 0.99962
1608 1.00543 0.999622
1612 1.0054 0.999624
1616 1.00538 0.999626
1620 1.00535 0.999628
1624 1.00532 0.99963
1628 1.0053 0.999632
1632 1.00527 0.999634
1636 1.00525 0.999636
1640 1.00522 0.999637
1644 1.0052 0.999639
1648 1.00517 0.999641
1652 1.00515 0.999643
1656 1.00512 0.999645
1660 1.0051 0.999647
1664 1.00507 0.999648
1668 1.00505 0.99965
1672 1.00502 0.999652
1676 1.005 0.999654
1680 1.00498 0.999655
1684 1.00495 0.999657
1688 1.00493 0.999659
1692 1.00491 0.999661
1696 1.00488 0.999662
1700 1.00486 0.999664
1704 1.00484 0.999666
1708 1.00482 0.999667
1712 1.00479 0.999669
1716 1.00477 0.999671
1720 1.00475 0.999672
1724 1.00473 0.999674
1728 1.00471 0.999675
1732 1.00468 0.999677
1736 1.00466 0.999678
1740 1.00464 0.99968
1744 1.00462 0.999682
1748 1.0046 0.999683
1752 1.00458 0.999685
1756 1.00456 0.999686
1760 1.00454 0.999688
1764 1.00452 0.999689
1768 1.0045 0.999691
1772 1.00448 0.999692
1776 1.00446 0.999694
1780 1.00444 0.999695
1784 1.00442 0.999696
1788 1.0044 0.999698
1792 1.00438 0.999699
1796 1.00436 0.999701
1800 1.00434 0.999702
1804 1.00432 0.999703
1808 1.0043 0.999705
1812 1.00428 0.999706
1816 1.00426 0.999708
1820 1.00424 0.999709
1824 1.00423 0.99971
1828 1.00421 0.999712
1832 1.00419 0.999713
1836 1.00417 0.999714
1840 1.00415 0.999715
1844 1.00413 0.999717
1848 1.00412 0.999718
1852 1.0041 0.999719
1856 1.00408 0.999721
1860 1.00406 0.999722
1864 1.00405 0.999723
1868 1.00403 0.999724
1872 1.00401 0.999726
1876 1.004 0.999727
1880 1.00398 0.999728
1884 1.00396 0.999729
1888 1.00394 0.99973
1892 1.00393 0.999732
1896 1.00391 0.999733
1900 1.0039 0.999734
1904 1.00388 0.999735
1908 1.00386 0.999736
1912 1.00385 0.999737
1916 1.00383 0.999739
1920 1.00381 0.99974
1924 1.0038 0.999741
1928 1.00378 0.999742
1932 1.00377 0.999743
1936 1.00375 0.999744
1940 1.00374 0.999745
1944 1.00372 0.999746
1948 1.00371 0.999747
1952 1.00369 0.999748
1956 1.00368 0.99975
1960 1.00366 0.999751
1964 1.00365 0.999752
1968 1.00363 0.999753
1972 1.00362 0.999754
1976 1.0036 0.999755
1980 1.00359 0.999756
1984 1.00357 0.999757
1988 1.00356 0.999758
1992 1.00355 0.999759
1996 1.00353 0.99976
