### FSI tabel with V scale fac(1.233333) (2-Gauss potential) #####
4 88.3562 2.55424
8 51.8935 2.55601
12 28.0165 2.54339
16 17.1115 2.51414
20 11.7204 2.47119
24 8.68758 2.42516
28 6.82058 2.3742
32 5.59287 2.32009
36 4.74279 2.26447
40 4.13002 2.20816
44 3.6736 2.15211
48 3.32417 2.09709
52 3.0504 2.04359
56 2.83161 1.99202
60 2.65368 1.94262
64 2.50675 1.89554
68 2.38373 1.85084
72 2.27944 1.80852
76 2.19003 1.76853
80 2.11257 1.73079
84 2.04483 1.6952
88 1.98506 1.66165
92 1.93188 1.63002
96 1.88421 1.60018
100 1.84117 1.57201
104 1.80205 1.54539
108 1.76628 1.52022
112 1.73338 1.49638
116 1.70296 1.47379
120 1.67469 1.45235
124 1.6483 1.43197
128 1.62357 1.41258
132 1.6003 1.39412
136 1.57832 1.3765
140 1.5575 1.35969
144 1.53772 1.34362
148 1.51888 1.32824
152 1.50089 1.31351
156 1.48367 1.2994
160 1.46717 1.28586
164 1.45132 1.27286
168 1.43608 1.26038
172 1.4214 1.24838
176 1.40725 1.23684
180 1.3936 1.22575
184 1.38041 1.21506
188 1.36767 1.20478
192 1.35534 1.19488
196 1.34342 1.18535
200 1.33187 1.17616
204 1.3207 1.16732
208 1.30988 1.1588
212 1.29939 1.15059
216 1.28924 1.14269
220 1.2794 1.13508
224 1.26988 1.12775
228 1.26065 1.12069
232 1.25171 1.1139
236 1.24305 1.10737
240 1.23467 1.10109
244 1.22656 1.09504
248 1.21871 1.08924
252 1.21112 1.08366
256 1.20377 1.0783
260 1.19667 1.07316
264 1.1898 1.06822
268 1.18316 1.06349
272 1.17675 1.05895
276 1.17056 1.0546
280 1.16458 1.05044
284 1.15881 1.04646
288 1.15325 1.04265
292 1.14788 1.03901
296 1.1427 1.03553
300 1.13771 1.03221
304 1.13291 1.02904
308 1.12828 1.02602
312 1.12382 1.02314
316 1.11953 1.0204
320 1.11539 1.01779
324 1.11142 1.01531
328 1.1076 1.01296
332 1.10393 1.01073
336 1.10039 1.00861
340 1.097 1.0066
344 1.09374 1.0047
348 1.0906 1.0029
352 1.0876 1.00121
356 1.08471 0.999604
360 1.08193 0.998093
364 1.07927 0.996669
368 1.07672 0.99533
372 1.07426 0.994071
376 1.07191 0.99289
380 1.06965 0.991782
384 1.06749 0.990745
388 1.06541 0.989776
392 1.06342 0.988872
396 1.06151 0.988029
400 1.05967 0.987245
404 1.05791 0.986517
408 1.05623 0.985843
412 1.05461 0.985219
416 1.05305 0.984644
420 1.05156 0.984115
424 1.05013 0.98363
428 1.04876 0.983186
432 1.04744 0.982782
436 1.04618 0.982415
440 1.04496 0.982083
444 1.0438 0.981785
448 1.04268 0.981518
452 1.0416 0.981281
456 1.04057 0.981073
460 1.03957 0.980891
464 1.03861 0.980734
468 1.03769 0.9806
472 1.03681 0.980489
476 1.03596 0.980399
480 1.03514 0.980328
484 1.03435 0.980276
488 1.03358 0.980241
492 1.03285 0.980222
496 1.03214 0.980218
500 1.03146 0.980228
504 1.0308 0.980252
508 1.03017 0.980287
512 1.02955 0.980334
516 1.02896 0.980391
520 1.02839 0.980458
524 1.02783 0.980534
528 1.0273 0.980619
532 1.02678 0.980711
536 1.02628 0.98081
540 1.02579 0.980916
544 1.02532 0.981028
548 1.02487 0.981145
552 1.02442 0.981267
556 1.024 0.981394
560 1.02358 0.981525
564 1.02318 0.981659
568 1.02279 0.981797
572 1.02241 0.981938
576 1.02204 0.982081
580 1.02168 0.982227
584 1.02133 0.982374
588 1.02099 0.982524
592 1.02066 0.982674
596 1.02034 0.982826
600 1.02003 0.98298
604 1.01972 0.983133
608 1.01943 0.983288
612 1.01914 0.983443
616 1.01886 0.983598
620 1.01858 0.983753
624 1.01832 0.983909
628 1.01806 0.984064
632 1.0178 0.984218
636 1.01755 0.984373
640 1.01731 0.984527
644 1.01708 0.98468
648 1.01684 0.984833
652 1.01662 0.984984
656 1.0164 0.985135
660 1.01618 0.985285
664 1.01597 0.985434
668 1.01576 0.985582
672 1.01556 0.985729
676 1.01537 0.985875
680 1.01517 0.986019
684 1.01498 0.986163
688 1.0148 0.986305
692 1.01462 0.986445
696 1.01444 0.986585
700 1.01427 0.986723
704 1.0141 0.986859
708 1.01393 0.986995
712 1.01377 0.987129
716 1.01361 0.987261
720 1.01345 0.987392
724 1.01329 0.987522
728 1.01314 0.98765
732 1.01299 0.987777
736 1.01285 0.987902
740 1.01271 0.988026
744 1.01257 0.988149
748 1.01243 0.98827
752 1.01229 0.988389
756 1.01216 0.988507
760 1.01203 0.988624
764 1.0119 0.988739
768 1.01177 0.988853
772 1.01165 0.988966
776 1.01153 0.989077
780 1.01141 0.989187
784 1.01129 0.989295
788 1.01118 0.989402
792 1.01106 0.989507
796 1.01095 0.989612
800 1.01084 0.989715
804 1.01073 0.989816
808 1.01062 0.989916
812 1.01052 0.990015
816 1.01042 0.990113
820 1.01032 0.99021
824 1.01022 0.990305
828 1.01012 0.990399
832 1.01002 0.990491
836 1.00992 0.990583
840 1.00983 0.990673
844 1.00974 0.990762
848 1.00965 0.99085
852 1.00956 0.990937
856 1.00947 0.991023
860 1.00938 0.991108
864 1.00929 0.991191
868 1.00921 0.991274
872 1.00912 0.991355
876 1.00904 0.991435
880 1.00896 0.991514
884 1.00888 0.991593
888 1.0088 0.99167
892 1.00872 0.991746
896 1.00865 0.991821
900 1.00857 0.991895
904 1.0085 0.991968
908 1.00842 0.992041
912 1.00835 0.992112
916 1.00828 0.992183
920 1.00821 0.992252
924 1.00814 0.992321
928 1.00807 0.992389
932 1.008 0.992455
936 1.00793 0.992522
940 1.00786 0.992587
944 1.0078 0.992651
948 1.00773 0.992715
952 1.00767 0.992778
956 1.00761 0.992839
960 1.00754 0.992901
964 1.00748 0.992961
968 1.00742 0.993021
972 1.00736 0.99308
976 1.0073 0.993138
980 1.00724 0.993195
984 1.00719 0.993252
988 1.00713 0.993308
992 1.00707 0.993364
996 1.00702 0.993418
1000 1.00696 0.993473
1004 1.00691 0.993526
1008 1.00685 0.993579
1012 1.0068 0.993631
1016 1.00675 0.993682
1020 1.00669 0.993733
1024 1.00664 0.993783
1028 1.00659 0.993833
1032 1.00654 0.993882
1036 1.00649 0.993931
1040 1.00644 0.993979
1044 1.00639 0.994026
1048 1.00635 0.994073
1052 1.0063 0.994119
1056 1.00625 0.994165
1060 1.00621 0.99421
1064 1.00616 0.994254
1068 1.00611 0.994299
1072 1.00607 0.994342
1076 1.00602 0.994385
1080 1.00598 0.994428
1084 1.00594 0.99447
1088 1.00589 0.994512
1092 1.00585 0.994553
1096 1.00581 0.994594
1100 1.00577 0.994634
1104 1.00573 0.994674
1108 1.00569 0.994713
1112 1.00565 0.994752
1116 1.00561 0.994791
1120 1.00557 0.994829
1124 1.00553 0.994867
1128 1.00549 0.994904
1132 1.00545 0.994941
1136 1.00541 0.994977
1140 1.00538 0.995013
1144 1.00534 0.995049
1148 1.0053 0.995084
1152 1.00527 0.995119
1156 1.00523 0.995154
1160 1.00519 0.995188
1164 1.00516 0.995222
1168 1.00512 0.995255
1172 1.00509 0.995288
1176 1.00506 0.995321
1180 1.00502 0.995353
1184 1.00499 0.995386
1188 1.00495 0.995417
1192 1.00492 0.995449
1196 1.00489 0.99548
1200 1.00486 0.995511
1204 1.00483 0.995541
1208 1.00479 0.995571
1212 1.00476 0.995601
1216 1.00473 0.995631
1220 1.0047 0.99566
1224 1.00467 0.995689
1228 1.00464 0.995717
1232 1.00461 0.995746
1236 1.00458 0.995774
1240 1.00455 0.995802
1244 1.00452 0.995829
1248 1.00449 0.995856
1252 1.00447 0.995883
1256 1.00444 0.99591
1260 1.00441 0.995937
1264 1.00438 0.995963
1268 1.00436 0.995989
1272 1.00433 0.996015
1276 1.0043 0.99604
1280 1.00428 0.996065
1284 1.00425 0.99609
1288 1.00422 0.996115
1292 1.0042 0.996139
1296 1.00417 0.996164
1300 1.00415 0.996188
1304 1.00412 0.996212
1308 1.0041 0.996235
1312 1.00407 0.996258
1316 1.00405 0.996282
1320 1.00402 0.996305
1324 1.004 0.996327
1328 1.00397 0.99635
1332 1.00395 0.996372
1336 1.00393 0.996394
1340 1.0039 0.996416
1344 1.00388 0.996438
1348 1.00386 0.996459
1352 1.00384 0.996481
1356 1.00381 0.996502
1360 1.00379 0.996523
1364 1.00377 0.996543
1368 1.00375 0.996564
1372 1.00373 0.996584
1376 1.0037 0.996604
1380 1.00368 0.996624
1384 1.00366 0.996644
1388 1.00364 0.996664
1392 1.00362 0.996683
1396 1.0036 0.996703
1400 1.00358 0.996722
1404 1.00356 0.996741
1408 1.00354 0.996759
1412 1.00352 0.996778
1416 1.0035 0.996797
1420 1.00348 0.996815
1424 1.00346 0.996833
1428 1.00344 0.996851
1432 1.00342 0.996869
1436 1.0034 0.996887
1440 1.00339 0.996904
1444 1.00337 0.996922
1448 1.00335 0.996939
1452 1.00333 0.996956
1456 1.00331 0.996973
1460 1.00329 0.99699
1464 1.00328 0.997006
1468 1.00326 0.997023
1472 1.00324 0.997039
1476 1.00322 0.997056
1480 1.00321 0.997072
1484 1.00319 0.997088
1488 1.00317 0.997104
1492 1.00315 0.997119
1496 1.00314 0.997135
1500 1.00312 0.99715
1504 1.00311 0.997166
1508 1.00309 0.997181
1512 1.00307 0.997196
1516 1.00306 0.997211
1520 1.00304 0.997226
1524 1.00302 0.997241
1528 1.00301 0.997255
1532 1.00299 0.99727
1536 1.00298 0.997284
1540 1.00296 0.997299
1544 1.00295 0.997313
1548 1.00293 0.997327
1552 1.00292 0.997341
1556 1.0029 0.997355
1560 1.00289 0.997368
1564 1.00287 0.997382
1568 1.00286 0.997395
1572 1.00284 0.997409
1576 1.00283 0.997422
1580 1.00282 0.997435
1584 1.0028 0.997448
1588 1.00279 0.997461
1592 1.00277 0.997474
1596 1.00276 0.997487
1600 1.00275 0.9975
1604 1.00273 0.997512
1608 1.00272 0.997525
1612 1.00271 0.997537
1616 1.00269 0.99755
1620 1.00268 0.997562
1624 1.00267 0.997574
1628 1.00265 0.997586
1632 1.00264 0.997598
1636 1.00263 0.99761
1640 1.00261 0.997622
1644 1.0026 0.997633
1648 1.00259 0.997645
1652 1.00258 0.997657
1656 1.00256 0.997668
1660 1.00255 0.997679
1664 1.00254 0.997691
1668 1.00253 0.997702
1672 1.00252 0.997713
1676 1.0025 0.997724
1680 1.00249 0.997735
1684 1.00248 0.997746
1688 1.00247 0.997757
1692 1.00246 0.997767
1696 1.00245 0.997778
1700 1.00243 0.997789
1704 1.00242 0.997799
1708 1.00241 0.997809
1712 1.0024 0.99782
1716 1.00239 0.99783
1720 1.00238 0.99784
1724 1.00237 0.99785
1728 1.00236 0.99786
1732 1.00235 0.99787
1736 1.00233 0.99788
1740 1.00232 0.99789
1744 1.00231 0.9979
1748 1.0023 0.99791
1752 1.00229 0.997919
1756 1.00228 0.997929
1760 1.00227 0.997938
1764 1.00226 0.997948
1768 1.00225 0.997957
1772 1.00224 0.997966
1776 1.00223 0.997976
1780 1.00222 0.997985
1784 1.00221 0.997994
1788 1.0022 0.998003
1792 1.00219 0.998012
1796 1.00218 0.998021
1800 1.00217 0.99803
1804 1.00216 0.998039
1808 1.00215 0.998047
1812 1.00214 0.998056
1816 1.00213 0.998065
1820 1.00213 0.998073
1824 1.00212 0.998082
1828 1.00211 0.99809
1832 1.0021 0.998099
1836 1.00209 0.998107
1840 1.00208 0.998115
1844 1.00207 0.998124
1848 1.00206 0.998132
1852 1.00205 0.99814
1856 1.00204 0.998148
1860 1.00204 0.998156
1864 1.00203 0.998164
1868 1.00202 0.998172
1872 1.00201 0.99818
1876 1.002 0.998188
1880 1.00199 0.998195
1884 1.00198 0.998203
1888 1.00198 0.998211
1892 1.00197 0.998218
1896 1.00196 0.998226
1900 1.00195 0.998234
1904 1.00194 0.998241
1908 1.00193 0.998248
1912 1.00193 0.998256
1916 1.00192 0.998263
1920 1.00191 0.99827
1924 1.0019 0.998278
1928 1.00189 0.998285
1932 1.00189 0.998292
1936 1.00188 0.998299
1940 1.00187 0.998306
1944 1.00186 0.998313
1948 1.00186 0.99832
1952 1.00185 0.998327
1956 1.00184 0.998334
1960 1.00183 0.998341
1964 1.00183 0.998348
1968 1.00182 0.998354
1972 1.00181 0.998361
1976 1.0018 0.998368
1980 1.0018 0.998375
1984 1.00179 0.998381
1988 1.00178 0.998388
1992 1.00178 0.998394
1996 1.00177 0.998401
