### FSI tabel with V scale fac(1.133333) (2-Gauss potential) #####
4 8.15131 1.91088
8 8.15813 1.90728
12 7.71605 1.90257
16 7.00185 1.89379
20 6.28021 1.87778
24 5.62055 1.86101
28 5.03866 1.84156
32 4.53692 1.82022
36 4.112 1.79751
40 3.75372 1.7736
44 3.45203 1.74887
48 3.19754 1.72364
52 2.982 1.69815
56 2.7985 1.67264
60 2.64137 1.64729
64 2.50598 1.62226
68 2.38859 1.59768
72 2.28615 1.57364
76 2.1962 1.55022
80 2.11672 1.52747
84 2.04609 1.50542
88 1.98294 1.4841
92 1.92618 1.4635
96 1.87489 1.44363
100 1.82829 1.42448
104 1.78576 1.40603
108 1.74677 1.38826
112 1.71085 1.37116
116 1.67763 1.35469
120 1.64678 1.33884
124 1.61804 1.32357
128 1.59116 1.30887
132 1.56594 1.29472
136 1.54221 1.28108
140 1.51982 1.26794
144 1.49864 1.25527
148 1.47856 1.24306
152 1.45947 1.23129
156 1.44129 1.21993
160 1.42396 1.20897
164 1.40739 1.1984
168 1.39154 1.1882
172 1.37636 1.17836
176 1.36179 1.16886
180 1.34781 1.15969
184 1.33436 1.15085
188 1.32144 1.14231
192 1.30899 1.13408
196 1.29701 1.12613
200 1.28546 1.11847
204 1.27433 1.11108
208 1.2636 1.10396
212 1.25326 1.09709
216 1.24327 1.09048
220 1.23364 1.08411
224 1.22435 1.07797
228 1.21539 1.07207
232 1.20674 1.0664
236 1.1984 1.06094
240 1.19035 1.0557
244 1.18259 1.05066
248 1.17511 1.04582
252 1.1679 1.04119
256 1.16094 1.03674
260 1.15425 1.03248
264 1.14779 1.0284
268 1.14158 1.02449
272 1.13559 1.02076
276 1.12984 1.01719
280 1.1243 1.01379
284 1.11897 1.01054
288 1.11385 1.00744
292 1.10892 1.0045
296 1.10419 1.00169
300 1.09965 0.999021
304 1.09529 0.996487
308 1.09111 0.994083
312 1.0871 0.991804
316 1.08325 0.989647
320 1.07956 0.987606
324 1.07603 0.985678
328 1.07264 0.983859
332 1.0694 0.982145
336 1.0663 0.980533
340 1.06333 0.979018
344 1.06049 0.977596
348 1.05778 0.976265
352 1.05519 0.975021
356 1.05271 0.973859
360 1.05035 0.972777
364 1.04809 0.971772
368 1.04593 0.970841
372 1.04388 0.969979
376 1.04191 0.969185
380 1.04004 0.968454
384 1.03826 0.967786
388 1.03656 0.967175
392 1.03494 0.966621
396 1.0334 0.96612
400 1.03193 0.96567
404 1.03053 0.965268
408 1.0292 0.964911
412 1.02794 0.964599
416 1.02673 0.964328
420 1.02558 0.964096
424 1.02449 0.963902
428 1.02346 0.963742
432 1.02247 0.963616
436 1.02153 0.963522
440 1.02064 0.963457
444 1.01979 0.96342
448 1.01898 0.96341
452 1.01822 0.963424
456 1.01749 0.963462
460 1.0168 0.963521
464 1.01614 0.963601
468 1.01551 0.963701
472 1.01492 0.963818
476 1.01435 0.963952
480 1.01381 0.964101
484 1.0133 0.964265
488 1.01281 0.964442
492 1.01235 0.964632
496 1.01191 0.964833
500 1.01149 0.965045
504 1.01109 0.965266
508 1.01071 0.965497
512 1.01035 0.965735
516 1.01001 0.965981
520 1.00968 0.966234
524 1.00937 0.966492
528 1.00907 0.966756
532 1.00879 0.967025
536 1.00852 0.967298
540 1.00826 0.967575
544 1.00802 0.967856
548 1.00778 0.968139
552 1.00756 0.968424
556 1.00734 0.968711
560 1.00714 0.969
564 1.00694 0.96929
568 1.00676 0.969582
572 1.00658 0.969873
576 1.00641 0.970165
580 1.00625 0.970457
584 1.00609 0.970749
588 1.00594 0.97104
592 1.0058 0.971331
596 1.00566 0.97162
600 1.00553 0.971909
604 1.0054 0.972196
608 1.00528 0.972482
612 1.00517 0.972766
616 1.00506 0.973049
620 1.00495 0.97333
624 1.00485 0.973608
628 1.00475 0.973885
632 1.00465 0.97416
636 1.00456 0.974432
640 1.00447 0.974702
644 1.00439 0.97497
648 1.00431 0.975235
652 1.00423 0.975498
656 1.00415 0.975758
660 1.00408 0.976016
664 1.00401 0.976271
668 1.00394 0.976523
672 1.00387 0.976772
676 1.00381 0.977019
680 1.00375 0.977264
684 1.00369 0.977505
688 1.00363 0.977744
692 1.00358 0.97798
696 1.00352 0.978213
700 1.00347 0.978443
704 1.00342 0.978671
708 1.00337 0.978896
712 1.00332 0.979118
716 1.00328 0.979337
720 1.00323 0.979554
724 1.00319 0.979768
728 1.00315 0.97998
732 1.00311 0.980188
736 1.00307 0.980394
740 1.00303 0.980597
744 1.00299 0.980798
748 1.00295 0.980996
752 1.00292 0.981192
756 1.00288 0.981385
760 1.00285 0.981575
764 1.00281 0.981763
768 1.00278 0.981949
772 1.00275 0.982132
776 1.00272 0.982312
780 1.00269 0.982491
784 1.00266 0.982666
788 1.00263 0.98284
792 1.0026 0.983011
796 1.00258 0.98318
800 1.00255 0.983347
804 1.00252 0.983511
808 1.0025 0.983673
812 1.00247 0.983833
816 1.00245 0.983991
820 1.00242 0.984147
824 1.0024 0.984301
828 1.00238 0.984453
832 1.00235 0.984602
836 1.00233 0.98475
840 1.00231 0.984896
844 1.00229 0.985039
848 1.00227 0.985181
852 1.00224 0.985321
856 1.00222 0.985459
860 1.0022 0.985595
864 1.00218 0.98573
868 1.00216 0.985862
872 1.00215 0.985993
876 1.00213 0.986122
880 1.00211 0.98625
884 1.00209 0.986376
888 1.00207 0.9865
892 1.00205 0.986622
896 1.00204 0.986743
900 1.00202 0.986863
904 1.002 0.98698
908 1.00199 0.987097
912 1.00197 0.987212
916 1.00195 0.987325
920 1.00194 0.987437
924 1.00192 0.987547
928 1.00191 0.987656
932 1.00189 0.987764
936 1.00188 0.98787
940 1.00186 0.987975
944 1.00185 0.988078
948 1.00183 0.98818
952 1.00182 0.988281
956 1.0018 0.988381
960 1.00179 0.98848
964 1.00178 0.988577
968 1.00176 0.988673
972 1.00175 0.988768
976 1.00174 0.988861
980 1.00172 0.988954
984 1.00171 0.989045
988 1.0017 0.989135
992 1.00168 0.989224
996 1.00167 0.989312
1000 1.00166 0.989399
1004 1.00165 0.989485
1008 1.00163 0.98957
1012 1.00162 0.989654
1016 1.00161 0.989737
1020 1.0016 0.989819
1024 1.00159 0.9899
1028 1.00158 0.98998
1032 1.00156 0.990059
1036 1.00155 0.990137
1040 1.00154 0.990214
1044 1.00153 0.99029
1048 1.00152 0.990366
1052 1.00151 0.99044
1056 1.0015 0.990514
1060 1.00149 0.990587
1064 1.00148 0.990659
1068 1.00147 0.99073
1072 1.00146 0.9908
1076 1.00145 0.99087
1080 1.00144 0.990938
1084 1.00143 0.991006
1088 1.00142 0.991074
1092 1.00141 0.99114
1096 1.0014 0.991206
1100 1.00139 0.991271
1104 1.00138 0.991335
1108 1.00137 0.991399
1112 1.00136 0.991461
1116 1.00135 0.991524
1120 1.00134 0.991585
1124 1.00133 0.991646
1128 1.00132 0.991706
1132 1.00132 0.991766
1136 1.00131 0.991825
1140 1.0013 0.991883
1144 1.00129 0.99194
1148 1.00128 0.991997
1152 1.00127 0.992054
1156 1.00127 0.99211
1160 1.00126 0.992165
1164 1.00125 0.99222
1168 1.00124 0.992274
1172 1.00123 0.992327
1176 1.00123 0.99238
1180 1.00122 0.992432
1184 1.00121 0.992484
1188 1.0012 0.992536
1192 1.00119 0.992586
1196 1.00119 0.992637
1200 1.00118 0.992687
1204 1.00117 0.992736
1208 1.00116 0.992785
1212 1.00116 0.992833
1216 1.00115 0.992881
1220 1.00114 0.992928
1224 1.00114 0.992975
1228 1.00113 0.993021
1232 1.00112 0.993067
1236 1.00112 0.993113
1240 1.00111 0.993158
1244 1.0011 0.993202
1248 1.0011 0.993246
1252 1.00109 0.99329
1256 1.00108 0.993333
1260 1.00108 0.993376
1264 1.00107 0.993419
1268 1.00106 0.993461
1272 1.00106 0.993502
1276 1.00105 0.993543
1280 1.00104 0.993584
1284 1.00104 0.993625
1288 1.00103 0.993665
1292 1.00103 0.993705
1296 1.00102 0.993744
1300 1.00101 0.993783
1304 1.00101 0.993821
1308 1.001 0.99386
1312 1.001 0.993897
1316 1.00099 0.993935
1320 1.00098 0.993972
1324 1.00098 0.994009
1328 1.00097 0.994045
1332 1.00097 0.994082
1336 1.00096 0.994117
1340 1.00096 0.994153
1344 1.00095 0.994188
1348 1.00095 0.994223
1352 1.00094 0.994258
1356 1.00093 0.994292
1360 1.00093 0.994326
1364 1.00092 0.994359
1368 1.00092 0.994393
1372 1.00091 0.994426
1376 1.00091 0.994459
1380 1.0009 0.994491
1384 1.0009 0.994523
1388 1.00089 0.994555
1392 1.00089 0.994587
1396 1.00088 0.994618
1400 1.00088 0.994649
1404 1.00087 0.99468
1408 1.00087 0.99471
1412 1.00087 0.994741
1416 1.00086 0.994771
1420 1.00086 0.9948
1424 1.00085 0.99483
1428 1.00085 0.994859
1432 1.00084 0.994888
1436 1.00084 0.994917
1440 1.00083 0.994945
1444 1.00083 0.994974
1448 1.00082 0.995002
1452 1.00082 0.995029
1456 1.00082 0.995057
1460 1.00081 0.995084
1464 1.00081 0.995111
1468 1.0008 0.995138
1472 1.0008 0.995165
1476 1.00079 0.995191
1480 1.00079 0.995218
1484 1.00079 0.995244
1488 1.00078 0.995269
1492 1.00078 0.995295
1496 1.00077 0.99532
1500 1.00077 0.995345
1504 1.00077 0.99537
1508 1.00076 0.995395
1512 1.00076 0.99542
1516 1.00075 0.995444
1520 1.00075 0.995468
1524 1.00075 0.995492
1528 1.00074 0.995516
1532 1.00074 0.99554
1536 1.00074 0.995563
1540 1.00073 0.995586
1544 1.00073 0.995609
1548 1.00072 0.995632
1552 1.00072 0.995655
1556 1.00072 0.995677
1560 1.00071 0.9957
1564 1.00071 0.995722
1568 1.00071 0.995744
1572 1.0007 0.995766
1576 1.0007 0.995787
1580 1.0007 0.995809
1584 1.00069 0.99583
1588 1.00069 0.995851
1592 1.00069 0.995872
1596 1.00068 0.995893
1600 1.00068 0.995914
1604 1.00068 0.995935
1608 1.00067 0.995955
1612 1.00067 0.995975
1616 1.00067 0.995995
1620 1.00066 0.996015
1624 1.00066 0.996035
1628 1.00066 0.996054
1632 1.00065 0.996074
1636 1.00065 0.996093
1640 1.00065 0.996112
1644 1.00064 0.996132
1648 1.00064 0.99615
1652 1.00064 0.996169
1656 1.00064 0.996188
1660 1.00063 0.996206
1664 1.00063 0.996225
1668 1.00063 0.996243
1672 1.00062 0.996261
1676 1.00062 0.996279
1680 1.00062 0.996297
1684 1.00062 0.996315
1688 1.00061 0.996332
1692 1.00061 0.99635
1696 1.00061 0.996367
1700 1.0006 0.996384
1704 1.0006 0.996401
1708 1.0006 0.996418
1712 1.0006 0.996435
1716 1.00059 0.996452
1720 1.00059 0.996468
1724 1.00059 0.996485
1728 1.00059 0.996501
1732 1.00058 0.996517
1736 1.00058 0.996534
1740 1.00058 0.99655
1744 1.00057 0.996566
1748 1.00057 0.996581
1752 1.00057 0.996597
1756 1.00057 0.996613
1760 1.00056 0.996628
1764 1.00056 0.996643
1768 1.00056 0.996659
1772 1.00056 0.996674
1776 1.00055 0.996689
1780 1.00055 0.996704
1784 1.00055 0.996719
1788 1.00055 0.996734
1792 1.00055 0.996748
1796 1.00054 0.996763
1800 1.00054 0.996777
1804 1.00054 0.996792
1808 1.00054 0.996806
1812 1.00053 0.99682
1816 1.00053 0.996834
1820 1.00053 0.996848
1824 1.00053 0.996862
1828 1.00052 0.996876
1832 1.00052 0.99689
1836 1.00052 0.996903
1840 1.00052 0.996917
1844 1.00052 0.99693
1848 1.00051 0.996944
1852 1.00051 0.996957
1856 1.00051 0.99697
1860 1.00051 0.996983
1864 1.0005 0.996996
1868 1.0005 0.997009
1872 1.0005 0.997022
1876 1.0005 0.997035
1880 1.0005 0.997047
1884 1.00049 0.99706
1888 1.00049 0.997073
1892 1.00049 0.997085
1896 1.00049 0.997097
1900 1.00049 0.99711
1904 1.00048 0.997122
1908 1.00048 0.997134
1912 1.00048 0.997146
1916 1.00048 0.997158
1920 1.00048 0.99717
1924 1.00047 0.997182
1928 1.00047 0.997193
1932 1.00047 0.997205
1936 1.00047 0.997217
1940 1.00047 0.997228
1944 1.00046 0.99724
1948 1.00046 0.997251
1952 1.00046 0.997262
1956 1.00046 0.997274
1960 1.00046 0.997285
1964 1.00046 0.997296
1968 1.00045 0.997307
1972 1.00045 0.997318
1976 1.00045 0.997329
1980 1.00045 0.99734
1984 1.00045 0.99735
1988 1.00044 0.997361
1992 1.00044 0.997372
1996 1.00044 0.997382
