### FSI tabel with 3He Potential (2-Gauss potential) #####
# Weight # krel [MeV] 
2 5.16594
4 4.90809
6 4.53192
8 4.09405
10 3.64343
12 3.21348
14 2.82241
16 2.4772
18 2.17789
20 1.92097
22 1.70148
24 1.51419
26 1.35421
28 1.21719
30 1.09944
32 0.99784
34 0.9098
36 0.83317
38 0.76617
40 0.70734
42 0.65547
44 0.60954
46 0.56872
48 0.53229
50 0.49968
52 0.47038
54 0.44396
56 0.42008
58 0.39843
60 0.37873
62 0.36077
64 0.34436
66 0.32932
68 0.3155
70 0.30278
72 0.29106
74 0.28022
76 0.27018
78 0.26087
80 0.25221
82 0.24416
84 0.23665
86 0.22964
88 0.22308
90 0.21694
92 0.21119
94 0.20578
96 0.2007
98 0.19591
100 0.19141
102 0.18715
104 0.18314
106 0.17934
108 0.17575
110 0.17235
112 0.16912
114 0.16606
116 0.16315
118 0.16038
120 0.15775
122 0.15525
124 0.15286
126 0.15058
128 0.14841
130 0.14634
132 0.14435
134 0.14246
136 0.14064
138 0.13891
140 0.13724
142 0.13565
144 0.13412
146 0.13265
148 0.13124
150 0.12988
152 0.12858
154 0.12733
156 0.12612
158 0.12496
160 0.12384
162 0.12277
164 0.12173
166 0.12073
168 0.11976
170 0.11883
172 0.11793
174 0.11706
176 0.11622
178 0.1154
180 0.11462
182 0.11386
184 0.11312
186 0.11241
188 0.11172
190 0.11105
192 0.1104
194 0.10977
196 0.10916
198 0.10857
200 0.108
202 0.10744
204 0.1069
206 0.10637
208 0.10586
210 0.10537
212 0.10488
214 0.10442
216 0.10396
218 0.10352
220 0.10309
222 0.10267
224 0.10226
226 0.10186
228 0.10147
230 0.10109
232 0.10073
234 0.10037
236 0.10002
238 0.09968
240 0.09935
242 0.09902
244 0.0987
246 0.0984
248 0.09809
250 0.0978
252 0.09751
254 0.09723
256 0.09696
258 0.09669
260 0.09643
262 0.09617
264 0.09593
266 0.09568
268 0.09544
270 0.09521
272 0.09498
274 0.09476
276 0.09454
278 0.09432
280 0.09412
282 0.09391
284 0.09371
286 0.09351
288 0.09332
290 0.09313
292 0.09295
294 0.09277
296 0.09259
298 0.09242
300 0.09225
302 0.09208
304 0.09192
306 0.09176
308 0.0916
310 0.09144
312 0.09129
314 0.09114
316 0.091
318 0.09086
320 0.09072
322 0.09058
324 0.09044
326 0.09031
328 0.09018
330 0.09005
332 0.08993
334 0.0898
336 0.08968
338 0.08956
340 0.08945
342 0.08933
344 0.08922
346 0.08911
348 0.089
350 0.08889
352 0.08879
354 0.08868
356 0.08858
358 0.08848
360 0.08838
362 0.08828
364 0.08819
366 0.0881
368 0.088
370 0.08791
372 0.08782
374 0.08774
376 0.08765
378 0.08756
380 0.08748
382 0.0874
384 0.08732
386 0.08724
388 0.08716
390 0.08708
392 0.087
394 0.08693
396 0.08686
398 0.08678
400 0.08671
402 0.08664
404 0.08657
406 0.0865
408 0.08643
410 0.08637
412 0.0863
414 0.08624
416 0.08617
418 0.08611
420 0.08605
422 0.08599
424 0.08593
426 0.08587
428 0.08581
430 0.08575
432 0.08569
434 0.08564
436 0.08558
438 0.08553
440 0.08547
442 0.08542
444 0.08537
446 0.08532
448 0.08527
450 0.08522
452 0.08517
454 0.08512
456 0.08507
458 0.08502
460 0.08497
462 0.08493
464 0.08488
466 0.08484
468 0.08479
470 0.08475
472 0.0847
474 0.08466
476 0.08462
478 0.08458
480 0.08453
482 0.08449
484 0.08445
486 0.08441
488 0.08437
490 0.08433
492 0.08429
494 0.08426
496 0.08422
498 0.08418
500 0.08415
502 0.08411
504 0.08407
506 0.08404
508 0.084
510 0.08397
512 0.08393
514 0.0839
516 0.08387
518 0.08383
520 0.0838
522 0.08377
524 0.08374
526 0.08371
528 0.08367
530 0.08364
532 0.08361
534 0.08358
536 0.08355
538 0.08352
540 0.08349
542 0.08347
544 0.08344
546 0.08341
548 0.08338
550 0.08335
552 0.08333
554 0.0833
556 0.08327
558 0.08325
560 0.08322
562 0.08319
564 0.08317
566 0.08314
568 0.08312
570 0.08309
572 0.08307
574 0.08304
576 0.08302
578 0.083
580 0.08297
582 0.08295
584 0.08293
586 0.0829
588 0.08288
590 0.08286
592 0.08284
594 0.08281
596 0.08279
598 0.08277
600 0.08275
602 0.08273
604 0.08271
606 0.08269
608 0.08267
610 0.08265
612 0.08263
614 0.08261
616 0.08259
618 0.08257
620 0.08255
622 0.08253
624 0.08251
626 0.08249
628 0.08247
630 0.08246
632 0.08244
634 0.08242
636 0.0824
638 0.08238
640 0.08237
642 0.08235
644 0.08233
646 0.08231
648 0.0823
650 0.08228
652 0.08226
654 0.08225
656 0.08223
658 0.08222
660 0.0822
662 0.08218
664 0.08217
666 0.08215
668 0.08214
670 0.08212
672 0.08211
674 0.08209
676 0.08208
678 0.08206
680 0.08205
682 0.08203
684 0.08202
686 0.08201
688 0.08199
690 0.08198
692 0.08196
694 0.08195
696 0.08194
698 0.08192
700 0.08191
702 0.0819
704 0.08188
706 0.08187
708 0.08186
710 0.08184
712 0.08183
714 0.08182
716 0.08181
718 0.08179
720 0.08178
722 0.08177
724 0.08176
726 0.08175
728 0.08173
730 0.08172
732 0.08171
734 0.0817
736 0.08169
738 0.08168
740 0.08166
742 0.08165
744 0.08164
746 0.08163
748 0.08162
750 0.08161
752 0.0816
754 0.08159
756 0.08158
758 0.08157
760 0.08156
762 0.08155
764 0.08153
766 0.08152
768 0.08151
770 0.0815
772 0.08149
774 0.08148
776 0.08147
778 0.08147
780 0.08146
782 0.08145
784 0.08144
786 0.08143
788 0.08142
790 0.08141
792 0.0814
794 0.08139
796 0.08138
798 0.08137
800 0.08136
802 0.08135
804 0.08135
806 0.08134
808 0.08133
810 0.08132
812 0.08131
814 0.0813
816 0.08129
818 0.08129
820 0.08128
822 0.08127
824 0.08126
826 0.08125
828 0.08124
830 0.08124
832 0.08123
834 0.08122
836 0.08121
838 0.0812
840 0.0812
842 0.08119
844 0.08118
846 0.08117
848 0.08117
850 0.08116
852 0.08115
854 0.08114
856 0.08114
858 0.08113
860 0.08112
862 0.08112
864 0.08111
866 0.0811
868 0.08109
870 0.08109
872 0.08108
874 0.08107
876 0.08107
878 0.08106
880 0.08105
882 0.08105
884 0.08104
886 0.08103
888 0.08103
890 0.08102
892 0.08101
894 0.08101
896 0.081
898 0.08099
900 0.08099
902 0.08098
904 0.08098
906 0.08097
908 0.08096
910 0.08096
912 0.08095
914 0.08095
916 0.08094
918 0.08093
920 0.08093
922 0.08092
924 0.08092
926 0.08091
928 0.0809
930 0.0809
932 0.08089
934 0.08089
936 0.08088
938 0.08088
940 0.08087
942 0.08087
944 0.08086
946 0.08085
948 0.08085
950 0.08084
952 0.08084
954 0.08083
956 0.08083
958 0.08082
960 0.08082
962 0.08081
964 0.08081
966 0.0808
968 0.0808
970 0.08079
972 0.08079
974 0.08078
976 0.08078
978 0.08077
980 0.08077
982 0.08076
984 0.08076
986 0.08075
988 0.08075
990 0.08074
992 0.08074
994 0.08073
996 0.08073
998 0.08072
1000 0.08072
1002 0.08072
1004 0.08071
1006 0.08071
1008 0.0807
1010 0.0807
1012 0.08069
1014 0.08069
1016 0.08068
1018 0.08068
1020 0.08068
1022 0.08067
1024 0.08067
1026 0.08066
1028 0.08066
1030 0.08065
1032 0.08065
1034 0.08065
1036 0.08064
1038 0.08064
1040 0.08063
1042 0.08063
1044 0.08063
1046 0.08062
1048 0.08062
1050 0.08061
1052 0.08061
1054 0.08061
1056 0.0806
1058 0.0806
1060 0.08059
1062 0.08059
1064 0.08059
1066 0.08058
1068 0.08058
1070 0.08058
1072 0.08057
1074 0.08057
1076 0.08056
1078 0.08056
1080 0.08056
1082 0.08055
1084 0.08055
1086 0.08055
1088 0.08054
1090 0.08054
1092 0.08054
1094 0.08053
1096 0.08053
1098 0.08053
1100 0.08052
1102 0.08052
1104 0.08052
1106 0.08051
1108 0.08051
1110 0.0805
1112 0.0805
1114 0.0805
1116 0.0805
1118 0.08049
1120 0.08049
1122 0.08049
1124 0.08048
1126 0.08048
1128 0.08048
1130 0.08047
1132 0.08047
1134 0.08047
1136 0.08046
1138 0.08046
1140 0.08046
1142 0.08045
1144 0.08045
1146 0.08045
1148 0.08044
1150 0.08044
1152 0.08044
1154 0.08044
1156 0.08043
1158 0.08043
1160 0.08043
1162 0.08042
1164 0.08042
1166 0.08042
1168 0.08042
1170 0.08041
1172 0.08041
1174 0.08041
1176 0.0804
1178 0.0804
1180 0.0804
1182 0.0804
1184 0.08039
1186 0.08039
1188 0.08039
1190 0.08038
1192 0.08038
1194 0.08038
1196 0.08038
1198 0.08037
1200 0.08037
1202 0.08037
1204 0.08037
1206 0.08036
1208 0.08036
1210 0.08036
1212 0.08036
1214 0.08035
1216 0.08035
1218 0.08035
1220 0.08035
1222 0.08034
1224 0.08034
1226 0.08034
1228 0.08034
1230 0.08033
1232 0.08033
1234 0.08033
1236 0.08033
1238 0.08032
1240 0.08032
1242 0.08032
1244 0.08032
1246 0.08031
1248 0.08031
1250 0.08031
1252 0.08031
1254 0.0803
1256 0.0803
1258 0.0803
1260 0.0803
1262 0.0803
1264 0.08029
1266 0.08029
1268 0.08029
1270 0.08029
1272 0.08028
1274 0.08028
1276 0.08028
1278 0.08028
1280 0.08027
1282 0.08027
1284 0.08027
1286 0.08027
1288 0.08027
1290 0.08026
1292 0.08026
1294 0.08026
1296 0.08026
1298 0.08026
1300 0.08025
1302 0.08025
1304 0.08025
1306 0.08025
1308 0.08025
1310 0.08024
1312 0.08024
1314 0.08024
1316 0.08024
1318 0.08024
1320 0.08023
1322 0.08023
1324 0.08023
1326 0.08023
1328 0.08023
1330 0.08022
1332 0.08022
1334 0.08022
1336 0.08022
1338 0.08022
1340 0.08021
1342 0.08021
1344 0.08021
1346 0.08021
1348 0.08021
1350 0.0802
1352 0.0802
1354 0.0802
1356 0.0802
1358 0.0802
1360 0.0802
1362 0.08019
1364 0.08019
1366 0.08019
1368 0.08019
1370 0.08019
1372 0.08018
1374 0.08018
1376 0.08018
1378 0.08018
1380 0.08018
1382 0.08018
1384 0.08017
1386 0.08017
1388 0.08017
1390 0.08017
1392 0.08017
1394 0.08017
1396 0.08016
1398 0.08016
1400 0.08016
1402 0.08016
1404 0.08016
1406 0.08016
1408 0.08015
1410 0.08015
1412 0.08015
1414 0.08015
1416 0.08015
1418 0.08015
1420 0.08014
1422 0.08014
1424 0.08014
1426 0.08014
1428 0.08014
1430 0.08014
1432 0.08013
1434 0.08013
1436 0.08013
1438 0.08013
1440 0.08013
1442 0.08013
1444 0.08013
1446 0.08012
1448 0.08012
1450 0.08012
1452 0.08012
1454 0.08012
1456 0.08012
1458 0.08012
1460 0.08011
1462 0.08011
1464 0.08011
1466 0.08011
1468 0.08011
1470 0.08011
1472 0.0801
1474 0.0801
1476 0.0801
1478 0.0801
1480 0.0801
1482 0.0801
1484 0.0801
1486 0.0801
1488 0.08009
1490 0.08009
1492 0.08009
1494 0.08009
1496 0.08009
1498 0.08009
1500 0.08009
1502 0.08008
1504 0.08008
1506 0.08008
1508 0.08008
1510 0.08008
1512 0.08008
1514 0.08008
1516 0.08007
1518 0.08007
1520 0.08007
1522 0.08007
1524 0.08007
1526 0.08007
1528 0.08007
1530 0.08007
1532 0.08006
1534 0.08006
1536 0.08006
1538 0.08006
1540 0.08006
1542 0.08006
1544 0.08006
1546 0.08006
1548 0.08005
1550 0.08005
1552 0.08005
1554 0.08005
1556 0.08005
1558 0.08005
1560 0.08005
1562 0.08005
1564 0.08004
1566 0.08004
1568 0.08004
1570 0.08004
1572 0.08004
1574 0.08004
1576 0.08004
1578 0.08004
1580 0.08004
1582 0.08003
1584 0.08003
1586 0.08003
1588 0.08003
1590 0.08003
1592 0.08003
1594 0.08003
1596 0.08003
1598 0.08003
1600 0.08002
1602 0.08002
1604 0.08002
1606 0.08002
1608 0.08002
1610 0.08002
1612 0.08002
1614 0.08002
1616 0.08002
1618 0.08001
1620 0.08001
1622 0.08001
1624 0.08001
1626 0.08001
1628 0.08001
1630 0.08001
1632 0.08001
1634 0.08001
1636 0.08
1638 0.08
1640 0.08
1642 0.08
1644 0.08
1646 0.08
1648 0.08
1650 0.08
1652 0.08
1654 0.08
1656 0.07999
1658 0.07999
1660 0.07999
1662 0.07999
1664 0.07999
1666 0.07999
1668 0.07999
1670 0.07999
1672 0.07999
1674 0.07999
1676 0.07998
1678 0.07998
1680 0.07998
1682 0.07998
1684 0.07998
1686 0.07998
1688 0.07998
1690 0.07998
1692 0.07998
1694 0.07998
1696 0.07997
1698 0.07997
1700 0.07997
1702 0.07997
1704 0.07997
1706 0.07997
1708 0.07997
1710 0.07997
1712 0.07997
1714 0.07997
1716 0.07997
1718 0.07996
1720 0.07996
1722 0.07996
1724 0.07996
1726 0.07996
1728 0.07996
1730 0.07996
1732 0.07996
1734 0.07996
1736 0.07996
1738 0.07996
1740 0.07995
1742 0.07995
1744 0.07995
1746 0.07995
1748 0.07995
1750 0.07995
1752 0.07995
1754 0.07995
1756 0.07995
1758 0.07995
1760 0.07995
1762 0.07995
1764 0.07994
1766 0.07994
1768 0.07994
1770 0.07994
1772 0.07994
1774 0.07994
1776 0.07994
1778 0.07994
1780 0.07994
1782 0.07994
1784 0.07994
1786 0.07994
1788 0.07993
1790 0.07993
1792 0.07993
1794 0.07993
1796 0.07993
1798 0.07993
1800 0.07993
1802 0.07993
1804 0.07993
1806 0.07993
1808 0.07993
1810 0.07993
1812 0.07993
1814 0.07992
1816 0.07992
1818 0.07992
1820 0.07992
1822 0.07992
1824 0.07992
1826 0.07992
1828 0.07992
1830 0.07992
1832 0.07992
1834 0.07992
1836 0.07992
1838 0.07992
1840 0.07992
1842 0.07991
1844 0.07991
1846 0.07991
1848 0.07991
1850 0.07991
1852 0.07991
1854 0.07991
1856 0.07991
1858 0.07991
1860 0.07991
1862 0.07991
1864 0.07991
1866 0.07991
1868 0.07991
1870 0.0799
1872 0.0799
1874 0.0799
1876 0.0799
1878 0.0799
1880 0.0799
1882 0.0799
1884 0.0799
1886 0.0799
1888 0.0799
1890 0.0799
1892 0.0799
1894 0.0799
1896 0.0799
1898 0.07989
1900 0.07989
1902 0.07989
1904 0.07989
1906 0.07989
1908 0.07989
1910 0.07989
1912 0.07989
1914 0.07989
1916 0.07989
1918 0.07989
1920 0.07989
1922 0.07989
1924 0.07989
1926 0.07989
1928 0.07988
1930 0.07988
1932 0.07988
1934 0.07988
1936 0.07988
1938 0.07988
1940 0.07988
1942 0.07988
1944 0.07988
1946 0.07988
1948 0.07988
1950 0.07988
1952 0.07988
1954 0.07988
1956 0.07988
1958 0.07988
1960 0.07987
1962 0.07987
1964 0.07987
1966 0.07987
1968 0.07987
1970 0.07987
1972 0.07987
1974 0.07987
1976 0.07987
1978 0.07987
1980 0.07987
1982 0.07987
1984 0.07987
1986 0.07987
1988 0.07987
1990 0.07987
1992 0.07987
1994 0.07986
1996 0.07986
1998 0.07986
