### FSI tabel with Verma Potential Triplet (2-Gauss potential) #####
# Weight # krel [MeV] 
1 2.566
2 2.56589
3 2.5657
4 2.56543
5 2.56509
6 2.56467
7 2.56418
8 2.56361
9 2.56297
10 2.56225
11 2.56146
12 2.56059
13 2.55965
14 2.55863
15 2.55754
16 2.55638
17 2.55514
18 2.55383
19 2.55245
20 2.551
21 2.54947
22 2.54787
23 2.54621
24 2.54447
25 2.54266
26 2.54079
27 2.53884
28 2.53683
29 2.53474
30 2.5326
31 2.53038
32 2.5281
33 2.52575
34 2.52334
35 2.52087
36 2.51833
37 2.51573
38 2.51307
39 2.51034
40 2.50756
41 2.50471
42 2.50181
43 2.49885
44 2.49583
45 2.49275
46 2.48962
47 2.48643
48 2.48319
49 2.4799
50 2.47655
51 2.47315
52 2.4697
53 2.4662
54 2.46264
55 2.45905
56 2.4554
57 2.4517
58 2.44796
59 2.44418
60 2.44035
61 2.43647
62 2.43255
63 2.4286
64 2.4246
65 2.42056
66 2.41648
67 2.41236
68 2.40821
69 2.40402
70 2.39979
71 2.39553
72 2.39123
73 2.3869
74 2.38254
75 2.37815
76 2.37373
77 2.36928
78 2.3648
79 2.36029
80 2.35575
81 2.35119
82 2.3466
83 2.34199
84 2.33735
85 2.33269
86 2.32801
87 2.32331
88 2.31859
89 2.31385
90 2.30908
91 2.3043
92 2.29951
93 2.29469
94 2.28986
95 2.28502
96 2.28016
97 2.27529
98 2.2704
99 2.26551
100 2.2606
101 2.25568
102 2.25075
103 2.24581
104 2.24086
105 2.23591
106 2.23094
107 2.22597
108 2.221
109 2.21602
110 2.21103
111 2.20604
112 2.20105
113 2.19605
114 2.19105
115 2.18605
116 2.18105
117 2.17605
118 2.17104
119 2.16604
120 2.16104
121 2.15604
122 2.15104
123 2.14605
124 2.14105
125 2.13607
126 2.13108
127 2.1261
128 2.12113
129 2.11616
130 2.11119
131 2.10623
132 2.10128
133 2.09634
134 2.0914
135 2.08647
136 2.08155
137 2.07664
138 2.07173
139 2.06684
140 2.06196
141 2.05708
142 2.05222
143 2.04737
144 2.04252
145 2.03769
146 2.03287
147 2.02807
148 2.02327
149 2.01849
150 2.01372
151 2.00897
152 2.00422
153 1.99949
154 1.99478
155 1.99008
156 1.98539
157 1.98072
158 1.97606
159 1.97142
160 1.96679
161 1.96218
162 1.95758
163 1.953
164 1.94843
165 1.94388
166 1.93935
167 1.93483
168 1.93033
169 1.92585
170 1.92138
171 1.91693
172 1.9125
173 1.90809
174 1.90369
175 1.89931
176 1.89494
177 1.8906
178 1.88627
179 1.88196
180 1.87767
181 1.8734
182 1.86914
183 1.86491
184 1.86069
185 1.85649
186 1.8523
187 1.84814
188 1.84399
189 1.83987
190 1.83576
191 1.83167
192 1.8276
193 1.82355
194 1.81952
195 1.8155
196 1.81151
197 1.80753
198 1.80357
199 1.79963
200 1.79571
201 1.79181
202 1.78793
203 1.78407
204 1.78022
205 1.7764
206 1.77259
207 1.7688
208 1.76504
209 1.76129
210 1.75756
211 1.75384
212 1.75015
213 1.74648
214 1.74282
215 1.73918
216 1.73557
217 1.73197
218 1.72839
219 1.72483
220 1.72128
221 1.71776
222 1.71425
223 1.71077
224 1.7073
225 1.70385
226 1.70041
227 1.697
228 1.6936
229 1.69023
230 1.68687
231 1.68353
232 1.6802
233 1.6769
234 1.67361
235 1.67034
236 1.66709
237 1.66386
238 1.66064
239 1.65745
240 1.65426
241 1.6511
242 1.64796
243 1.64483
244 1.64172
245 1.63863
246 1.63555
247 1.63249
248 1.62945
249 1.62642
250 1.62342
251 1.62043
252 1.61745
253 1.61449
254 1.61155
255 1.60863
256 1.60572
257 1.60283
258 1.59996
259 1.5971
260 1.59426
261 1.59143
262 1.58862
263 1.58583
264 1.58305
265 1.58029
266 1.57754
267 1.57481
268 1.57209
269 1.56939
270 1.56671
271 1.56404
272 1.56139
273 1.55875
274 1.55613
275 1.55352
276 1.55092
277 1.54835
278 1.54578
279 1.54323
280 1.5407
281 1.53818
282 1.53568
283 1.53319
284 1.53071
285 1.52825
286 1.5258
287 1.52337
288 1.52095
289 1.51854
290 1.51615
291 1.51377
292 1.51141
293 1.50906
294 1.50672
295 1.5044
296 1.50209
297 1.49979
298 1.49751
299 1.49524
300 1.49298
301 1.49074
302 1.48851
303 1.48629
304 1.48409
305 1.4819
306 1.47972
307 1.47755
308 1.47539
309 1.47325
310 1.47112
311 1.46901
312 1.4669
313 1.46481
314 1.46273
315 1.46066
316 1.4586
317 1.45656
318 1.45452
319 1.4525
320 1.45049
321 1.44849
322 1.44651
323 1.44453
324 1.44257
325 1.44061
326 1.43867
327 1.43674
328 1.43482
329 1.43291
330 1.43102
331 1.42913
332 1.42725
333 1.42539
334 1.42354
335 1.42169
336 1.41986
337 1.41804
338 1.41622
339 1.41442
340 1.41263
341 1.41085
342 1.40908
343 1.40732
344 1.40557
345 1.40382
346 1.40209
347 1.40037
348 1.39866
349 1.39696
350 1.39527
351 1.39358
352 1.39191
353 1.39025
354 1.38859
355 1.38695
356 1.38531
357 1.38369
358 1.38207
359 1.38046
360 1.37886
361 1.37727
362 1.37569
363 1.37412
364 1.37255
365 1.371
366 1.36945
367 1.36792
368 1.36639
369 1.36487
370 1.36336
371 1.36185
372 1.36036
373 1.35887
374 1.35739
375 1.35592
376 1.35446
377 1.35301
378 1.35156
379 1.35013
380 1.3487
381 1.34727
382 1.34586
383 1.34445
384 1.34306
385 1.34166
386 1.34028
387 1.33891
388 1.33754
389 1.33618
390 1.33483
391 1.33348
392 1.33214
393 1.33081
394 1.32949
395 1.32817
396 1.32686
397 1.32556
398 1.32427
399 1.32298
400 1.3217
401 1.32042
402 1.31916
403 1.3179
404 1.31664
405 1.3154
406 1.31416
407 1.31292
408 1.3117
409 1.31048
410 1.30926
411 1.30806
412 1.30686
413 1.30566
414 1.30448
415 1.3033
416 1.30212
417 1.30095
418 1.29979
419 1.29863
420 1.29748
421 1.29634
422 1.2952
423 1.29407
424 1.29294
425 1.29182
426 1.29071
427 1.2896
428 1.2885
429 1.2874
430 1.28631
431 1.28523
432 1.28415
433 1.28308
434 1.28201
435 1.28095
436 1.27989
437 1.27884
438 1.27779
439 1.27675
440 1.27572
441 1.27469
442 1.27367
443 1.27265
444 1.27163
445 1.27062
446 1.26962
447 1.26862
448 1.26763
449 1.26664
450 1.26566
451 1.26468
452 1.26371
453 1.26274
454 1.26178
455 1.26082
456 1.25987
457 1.25892
458 1.25798
459 1.25704
460 1.25611
461 1.25518
462 1.25426
463 1.25334
464 1.25242
465 1.25151
466 1.25061
467 1.24971
468 1.24881
469 1.24792
470 1.24703
471 1.24615
472 1.24527
473 1.2444
474 1.24353
475 1.24266
476 1.2418
477 1.24095
478 1.24009
479 1.23924
480 1.2384
481 1.23756
482 1.23673
483 1.23589
484 1.23507
485 1.23424
486 1.23343
487 1.23261
488 1.2318
489 1.23099
490 1.23019
491 1.22939
492 1.22859
493 1.2278
494 1.22702
495 1.22623
496 1.22545
497 1.22468
498 1.2239
499 1.22314
500 1.22237
501 1.22161
502 1.22085
503 1.2201
504 1.21935
505 1.2186
506 1.21786
507 1.21712
508 1.21639
509 1.21565
510 1.21492
511 1.2142
512 1.21348
513 1.21276
514 1.21204
515 1.21133
516 1.21063
517 1.20992
518 1.20922
519 1.20852
520 1.20783
521 1.20714
522 1.20645
523 1.20576
524 1.20508
525 1.2044
526 1.20373
527 1.20306
528 1.20239
529 1.20172
530 1.20106
531 1.2004
532 1.19974
533 1.19909
534 1.19844
535 1.19779
536 1.19715
537 1.19651
538 1.19587
539 1.19523
540 1.1946
541 1.19397
542 1.19334
543 1.19272
544 1.1921
545 1.19148
546 1.19087
547 1.19025
548 1.18964
549 1.18904
550 1.18843
551 1.18783
552 1.18723
553 1.18664
554 1.18605
555 1.18546
556 1.18487
557 1.18428
558 1.1837
559 1.18312
560 1.18254
561 1.18197
562 1.1814
563 1.18083
564 1.18026
565 1.1797
566 1.17914
567 1.17858
568 1.17802
569 1.17747
570 1.17691
571 1.17637
572 1.17582
573 1.17527
574 1.17473
575 1.17419
576 1.17366
577 1.17312
578 1.17259
579 1.17206
580 1.17153
581 1.17101
582 1.17048
583 1.16996
584 1.16944
585 1.16893
586 1.16841
587 1.1679
588 1.16739
589 1.16688
590 1.16638
591 1.16588
592 1.16538
593 1.16488
594 1.16438
595 1.16389
596 1.1634
597 1.16291
598 1.16242
599 1.16193
600 1.16145
601 1.16097
602 1.16049
603 1.16001
604 1.15954
605 1.15906
606 1.15859
607 1.15812
608 1.15765
609 1.15719
610 1.15673
611 1.15626
612 1.15581
613 1.15535
614 1.15489
615 1.15444
616 1.15399
617 1.15354
618 1.15309
619 1.15264
620 1.1522
621 1.15176
622 1.15132
623 1.15088
624 1.15044
625 1.15001
626 1.14957
627 1.14914
628 1.14871
629 1.14829
630 1.14786
631 1.14744
632 1.14701
633 1.14659
634 1.14617
635 1.14576
636 1.14534
637 1.14493
638 1.14452
639 1.14411
640 1.1437
641 1.14329
642 1.14289
643 1.14248
644 1.14208
645 1.14168
646 1.14128
647 1.14088
648 1.14049
649 1.14009
650 1.1397
651 1.13931
652 1.13892
653 1.13854
654 1.13815
655 1.13777
656 1.13738
657 1.137
658 1.13662
659 1.13624
660 1.13587
661 1.13549
662 1.13512
663 1.13475
664 1.13438
665 1.13401
666 1.13364
667 1.13327
668 1.13291
669 1.13254
670 1.13218
671 1.13182
672 1.13146
673 1.13111
674 1.13075
675 1.13039
676 1.13004
677 1.12969
678 1.12934
679 1.12899
680 1.12864
681 1.12829
682 1.12795
683 1.12761
684 1.12726
685 1.12692
686 1.12658
687 1.12624
688 1.12591
689 1.12557
690 1.12524
691 1.1249
692 1.12457
693 1.12424
694 1.12391
695 1.12358
696 1.12326
697 1.12293
698 1.12261
699 1.12228
700 1.12196
701 1.12164
702 1.12132
703 1.121
704 1.12069
705 1.12037
706 1.12006
707 1.11974
708 1.11943
709 1.11912
710 1.11881
711 1.1185
712 1.11819
713 1.11789
714 1.11758
715 1.11728
716 1.11698
717 1.11667
718 1.11637
719 1.11607
720 1.11578
721 1.11548
722 1.11518
723 1.11489
724 1.11459
725 1.1143
726 1.11401
727 1.11372
728 1.11343
729 1.11314
730 1.11285
731 1.11257
732 1.11228
733 1.112
734 1.11171
735 1.11143
736 1.11115
737 1.11087
738 1.11059
739 1.11031
740 1.11004
741 1.10976
742 1.10949
743 1.10921
744 1.10894
745 1.10867
746 1.1084
747 1.10813
748 1.10786
749 1.10759
750 1.10732
751 1.10706
752 1.10679
753 1.10653
754 1.10626
755 1.106
756 1.10574
757 1.10548
758 1.10522
759 1.10496
760 1.1047
761 1.10445
762 1.10419
763 1.10394
764 1.10368
765 1.10343
766 1.10318
767 1.10293
768 1.10268
769 1.10243
770 1.10218
771 1.10193
772 1.10169
773 1.10144
774 1.10119
775 1.10095
776 1.10071
777 1.10046
778 1.10022
779 1.09998
780 1.09974
781 1.0995
782 1.09927
783 1.09903
784 1.09879
785 1.09856
786 1.09832
787 1.09809
788 1.09785
789 1.09762
790 1.09739
791 1.09716
792 1.09693
793 1.0967
794 1.09647
795 1.09624
796 1.09602
797 1.09579
798 1.09557
799 1.09534
800 1.09512
801 1.0949
802 1.09467
803 1.09445
804 1.09423
805 1.09401
806 1.09379
807 1.09357
808 1.09336
809 1.09314
810 1.09292
811 1.09271
812 1.09249
813 1.09228
814 1.09207
815 1.09185
816 1.09164
817 1.09143
818 1.09122
819 1.09101
820 1.0908
821 1.09059
822 1.09039
823 1.09018
824 1.08997
825 1.08977
826 1.08956
827 1.08936
828 1.08915
829 1.08895
830 1.08875
831 1.08855
832 1.08835
833 1.08815
834 1.08795
835 1.08775
836 1.08755
837 1.08735
838 1.08716
839 1.08696
840 1.08677
841 1.08657
842 1.08638
843 1.08618
844 1.08599
845 1.0858
846 1.08561
847 1.08542
848 1.08523
849 1.08504
850 1.08485
851 1.08466
852 1.08447
853 1.08428
854 1.0841
855 1.08391
856 1.08373
857 1.08354
858 1.08336
859 1.08317
860 1.08299
861 1.08281
862 1.08263
863 1.08244
864 1.08226
865 1.08208
866 1.0819
867 1.08172
868 1.08155
869 1.08137
870 1.08119
871 1.08101
872 1.08084
873 1.08066
874 1.08049
875 1.08031
876 1.08014
877 1.07997
878 1.07979
879 1.07962
880 1.07945
881 1.07928
882 1.07911
883 1.07894
884 1.07877
885 1.0786
886 1.07843
887 1.07826
888 1.0781
889 1.07793
890 1.07776
891 1.0776
892 1.07743
893 1.07727
894 1.0771
895 1.07694
896 1.07678
897 1.07661
898 1.07645
899 1.07629
900 1.07613
901 1.07597
902 1.07581
903 1.07565
904 1.07549
905 1.07533
906 1.07517
907 1.07501
908 1.07486
909 1.0747
910 1.07454
911 1.07439
912 1.07423
913 1.07408
914 1.07392
915 1.07377
916 1.07362
917 1.07346
918 1.07331
919 1.07316
920 1.07301
921 1.07286
922 1.07271
923 1.07256
924 1.07241
925 1.07226
926 1.07211
927 1.07196
928 1.07181
929 1.07166
930 1.07152
931 1.07137
932 1.07122
933 1.07108
934 1.07093
935 1.07079
936 1.07064
937 1.0705
938 1.07036
939 1.07021
940 1.07007
941 1.06993
942 1.06979
943 1.06965
944 1.06951
945 1.06937
946 1.06923
947 1.06909
948 1.06895
949 1.06881
950 1.06867
951 1.06853
952 1.06839
953 1.06826
954 1.06812
955 1.06798
956 1.06785
957 1.06771
958 1.06758
959 1.06744
960 1.06731
961 1.06717
962 1.06704
963 1.06691
964 1.06677
965 1.06664
966 1.06651
967 1.06638
968 1.06625
969 1.06612
970 1.06599
971 1.06585
972 1.06573
973 1.0656
974 1.06547
975 1.06534
976 1.06521
977 1.06508
978 1.06495
979 1.06483
980 1.0647
981 1.06457
982 1.06445
983 1.06432
984 1.0642
985 1.06407
986 1.06395
987 1.06382
988 1.0637
989 1.06358
990 1.06345
991 1.06333
992 1.06321
993 1.06309
994 1.06296
995 1.06284
996 1.06272
997 1.0626
998 1.06248
999 1.06236
1000 1.06224
1001 1.06212
1002 1.062
1003 1.06188
1004 1.06177
1005 1.06165
1006 1.06153
1007 1.06141
1008 1.0613
1009 1.06118
1010 1.06106
1011 1.06095
1012 1.06083
1013 1.06072
1014 1.0606
1015 1.06049
1016 1.06037
1017 1.06026
1018 1.06014
1019 1.06003
1020 1.05992
1021 1.0598
1022 1.05969
1023 1.05958
1024 1.05947
1025 1.05936
1026 1.05924
1027 1.05913
1028 1.05902
1029 1.05891
1030 1.0588
1031 1.05869
1032 1.05858
1033 1.05847
1034 1.05837
1035 1.05826
1036 1.05815
1037 1.05804
1038 1.05793
1039 1.05783
1040 1.05772
1041 1.05761
1042 1.05751
1043 1.0574
1044 1.05729
1045 1.05719
1046 1.05708
1047 1.05698
1048 1.05687
1049 1.05677
1050 1.05666
1051 1.05656
1052 1.05646
1053 1.05635
1054 1.05625
1055 1.05615
1056 1.05605
1057 1.05594
1058 1.05584
1059 1.05574
1060 1.05564
1061 1.05554
1062 1.05544
1063 1.05534
1064 1.05524
1065 1.05514
1066 1.05504
1067 1.05494
1068 1.05484
1069 1.05474
1070 1.05464
1071 1.05454
1072 1.05444
1073 1.05434
1074 1.05425
1075 1.05415
1076 1.05405
1077 1.05396
1078 1.05386
1079 1.05376
1080 1.05367
1081 1.05357
1082 1.05348
1083 1.05338
1084 1.05328
1085 1.05319
1086 1.0531
1087 1.053
1088 1.05291
1089 1.05281
1090 1.05272
1091 1.05263
1092 1.05253
1093 1.05244
1094 1.05235
1095 1.05226
1096 1.05216
1097 1.05207
1098 1.05198
1099 1.05189
1100 1.0518
1101 1.05171
1102 1.05162
1103 1.05153
1104 1.05143
1105 1.05134
1106 1.05126
1107 1.05117
1108 1.05108
1109 1.05099
1110 1.0509
1111 1.05081
1112 1.05072
1113 1.05063
1114 1.05055
1115 1.05046
1116 1.05037
1117 1.05028
1118 1.0502
1119 1.05011
1120 1.05002
1121 1.04994
1122 1.04985
1123 1.04976
1124 1.04968
1125 1.04959
1126 1.04951
1127 1.04942
1128 1.04934
1129 1.04925
1130 1.04917
1131 1.04908
1132 1.049
1133 1.04892
1134 1.04883
1135 1.04875
1136 1.04867
1137 1.04858
1138 1.0485
1139 1.04842
1140 1.04834
1141 1.04825
1142 1.04817
1143 1.04809
1144 1.04801
1145 1.04793
1146 1.04785
1147 1.04777
1148 1.04769
1149 1.04761
1150 1.04753
1151 1.04745
1152 1.04737
1153 1.04729
1154 1.04721
1155 1.04713
1156 1.04705
1157 1.04697
1158 1.04689
1159 1.04681
1160 1.04673
1161 1.04666
1162 1.04658
1163 1.0465
1164 1.04642
1165 1.04635
1166 1.04627
1167 1.04619
1168 1.04611
1169 1.04604
1170 1.04596
1171 1.04589
1172 1.04581
1173 1.04573
1174 1.04566
1175 1.04558
1176 1.04551
1177 1.04543
1178 1.04536
1179 1.04528
1180 1.04521
1181 1.04513
1182 1.04506
1183 1.04499
1184 1.04491
1185 1.04484
1186 1.04477
1187 1.04469
1188 1.04462
1189 1.04455
1190 1.04447
1191 1.0444
1192 1.04433
1193 1.04426
1194 1.04418
1195 1.04411
1196 1.04404
1197 1.04397
1198 1.0439
1199 1.04383
1200 1.04376
1201 1.04369
1202 1.04361
1203 1.04354
1204 1.04347
1205 1.0434
1206 1.04333
1207 1.04326
1208 1.04319
1209 1.04312
1210 1.04306
1211 1.04299
1212 1.04292
1213 1.04285
1214 1.04278
1215 1.04271
1216 1.04264
1217 1.04258
1218 1.04251
1219 1.04244
1220 1.04237
1221 1.0423
1222 1.04224
1223 1.04217
1224 1.0421
1225 1.04204
1226 1.04197
1227 1.0419
1228 1.04184
1229 1.04177
1230 1.0417
1231 1.04164
1232 1.04157
1233 1.04151
1234 1.04144
1235 1.04138
1236 1.04131
1237 1.04125
1238 1.04118
1239 1.04112
1240 1.04105
1241 1.04099
1242 1.04092
1243 1.04086
1244 1.04079
1245 1.04073
1246 1.04067
1247 1.0406
1248 1.04054
1249 1.04048
1250 1.04041
1251 1.04035
1252 1.04029
1253 1.04023
1254 1.04016
1255 1.0401
1256 1.04004
1257 1.03998
1258 1.03992
1259 1.03985
1260 1.03979
1261 1.03973
1262 1.03967
1263 1.03961
1264 1.03955
1265 1.03949
1266 1.03942
1267 1.03936
1268 1.0393
1269 1.03924
1270 1.03918
1271 1.03912
1272 1.03906
1273 1.039
1274 1.03894
1275 1.03888
1276 1.03882
1277 1.03877
1278 1.03871
1279 1.03865
1280 1.03859
1281 1.03853
1282 1.03847
1283 1.03841
1284 1.03835
1285 1.0383
1286 1.03824
1287 1.03818
1288 1.03812
1289 1.03806
1290 1.03801
1291 1.03795
1292 1.03789
1293 1.03784
1294 1.03778
1295 1.03772
1296 1.03766
1297 1.03761
1298 1.03755
1299 1.03749
1300 1.03744
1301 1.03738
1302 1.03733
1303 1.03727
1304 1.03721
1305 1.03716
1306 1.0371
1307 1.03705
1308 1.03699
1309 1.03694
1310 1.03688
1311 1.03683
1312 1.03677
1313 1.03672
1314 1.03666
1315 1.03661
1316 1.03655
1317 1.0365
1318 1.03645
1319 1.03639
1320 1.03634
1321 1.03629
1322 1.03623
1323 1.03618
1324 1.03612
1325 1.03607
1326 1.03602
1327 1.03597
1328 1.03591
1329 1.03586
1330 1.03581
1331 1.03575
1332 1.0357
1333 1.03565
1334 1.0356
1335 1.03555
1336 1.03549
1337 1.03544
1338 1.03539
1339 1.03534
1340 1.03529
1341 1.03524
1342 1.03518
1343 1.03513
1344 1.03508
1345 1.03503
1346 1.03498
1347 1.03493
1348 1.03488
1349 1.03483
1350 1.03478
1351 1.03473
1352 1.03468
1353 1.03463
1354 1.03458
1355 1.03453
1356 1.03448
1357 1.03443
1358 1.03438
1359 1.03433
1360 1.03428
1361 1.03423
1362 1.03418
1363 1.03413
1364 1.03408
1365 1.03403
1366 1.03398
1367 1.03394
1368 1.03389
1369 1.03384
1370 1.03379
1371 1.03374
1372 1.03369
1373 1.03365
1374 1.0336
1375 1.03355
1376 1.0335
1377 1.03346
1378 1.03341
1379 1.03336
1380 1.03331
1381 1.03327
1382 1.03322
1383 1.03317
1384 1.03313
1385 1.03308
1386 1.03303
1387 1.03299
1388 1.03294
1389 1.03289
1390 1.03285
1391 1.0328
1392 1.03275
1393 1.03271
1394 1.03266
1395 1.03262
1396 1.03257
1397 1.03252
1398 1.03248
1399 1.03243
1400 1.03239
1401 1.03234
1402 1.0323
1403 1.03225
1404 1.03221
1405 1.03216
1406 1.03212
1407 1.03207
1408 1.03203
1409 1.03198
1410 1.03194
1411 1.0319
1412 1.03185
1413 1.03181
1414 1.03176
1415 1.03172
1416 1.03168
1417 1.03163
1418 1.03159
1419 1.03154
1420 1.0315
1421 1.03146
1422 1.03141
1423 1.03137
1424 1.03133
1425 1.03128
1426 1.03124
1427 1.0312
1428 1.03116
1429 1.03111
1430 1.03107
1431 1.03103
1432 1.03099
1433 1.03094
1434 1.0309
1435 1.03086
1436 1.03082
1437 1.03077
1438 1.03073
1439 1.03069
1440 1.03065
1441 1.03061
1442 1.03057
1443 1.03052
1444 1.03048
1445 1.03044
1446 1.0304
1447 1.03036
1448 1.03032
1449 1.03028
1450 1.03024
1451 1.03019
1452 1.03015
1453 1.03011
1454 1.03007
1455 1.03003
1456 1.02999
1457 1.02995
1458 1.02991
1459 1.02987
1460 1.02983
1461 1.02979
1462 1.02975
1463 1.02971
1464 1.02967
1465 1.02963
1466 1.02959
1467 1.02955
1468 1.02951
1469 1.02947
1470 1.02943
1471 1.02939
1472 1.02936
1473 1.02932
1474 1.02928
1475 1.02924
1476 1.0292
1477 1.02916
1478 1.02912
1479 1.02908
1480 1.02904
1481 1.02901
1482 1.02897
1483 1.02893
1484 1.02889
1485 1.02885
1486 1.02881
1487 1.02878
1488 1.02874
1489 1.0287
1490 1.02866
1491 1.02863
1492 1.02859
1493 1.02855
1494 1.02851
1495 1.02848
1496 1.02844
1497 1.0284
1498 1.02836
1499 1.02833
1500 1.02829
1501 1.02825
1502 1.02822
1503 1.02818
1504 1.02814
1505 1.02811
1506 1.02807
1507 1.02803
1508 1.028
1509 1.02796
1510 1.02792
1511 1.02789
1512 1.02785
1513 1.02781
1514 1.02778
1515 1.02774
1516 1.02771
1517 1.02767
1518 1.02763
1519 1.0276
1520 1.02756
1521 1.02753
1522 1.02749
1523 1.02746
1524 1.02742
1525 1.02739
1526 1.02735
1527 1.02732
1528 1.02728
1529 1.02724
1530 1.02721
1531 1.02718
1532 1.02714
1533 1.02711
1534 1.02707
1535 1.02704
1536 1.027
1537 1.02697
1538 1.02693
1539 1.0269
1540 1.02686
1541 1.02683
1542 1.0268
1543 1.02676
1544 1.02673
1545 1.02669
1546 1.02666
1547 1.02663
1548 1.02659
1549 1.02656
1550 1.02652
1551 1.02649
1552 1.02646
1553 1.02642
1554 1.02639
1555 1.02636
1556 1.02632
1557 1.02629
1558 1.02626
1559 1.02622
1560 1.02619
1561 1.02616
1562 1.02612
1563 1.02609
1564 1.02606
1565 1.02603
1566 1.02599
1567 1.02596
1568 1.02593
1569 1.0259
1570 1.02586
1571 1.02583
1572 1.0258
1573 1.02577
1574 1.02573
1575 1.0257
1576 1.02567
1577 1.02564
1578 1.02561
1579 1.02557
1580 1.02554
1581 1.02551
1582 1.02548
1583 1.02545
1584 1.02542
1585 1.02538
1586 1.02535
1587 1.02532
1588 1.02529
1589 1.02526
1590 1.02523
1591 1.0252
1592 1.02517
1593 1.02513
1594 1.0251
1595 1.02507
1596 1.02504
1597 1.02501
1598 1.02498
1599 1.02495
1600 1.02492
1601 1.02489
1602 1.02486
1603 1.02483
1604 1.0248
1605 1.02477
1606 1.02474
1607 1.02471
1608 1.02467
1609 1.02464
1610 1.02461
1611 1.02458
1612 1.02455
1613 1.02452
1614 1.02449
1615 1.02446
1616 1.02444
1617 1.02441
1618 1.02438
1619 1.02435
1620 1.02432
1621 1.02429
1622 1.02426
1623 1.02423
1624 1.0242
1625 1.02417
1626 1.02414
1627 1.02411
1628 1.02408
1629 1.02405
