### FSI tabel with Julich B Potential (2-Gauss potential) #####
# Weight # krel [MeV] 
1 1.39958
2 1.39956
3 1.39954
4 1.3995
5 1.39946
6 1.3994
7 1.39934
8 1.39926
9 1.39918
10 1.39908
11 1.39898
12 1.39886
13 1.39874
14 1.3986
15 1.39846
16 1.3983
17 1.39814
18 1.39796
19 1.39778
20 1.39758
21 1.39738
22 1.39716
23 1.39694
24 1.39671
25 1.39646
26 1.39621
27 1.39595
28 1.39568
29 1.3954
30 1.39511
31 1.39481
32 1.3945
33 1.39418
34 1.39385
35 1.39352
36 1.39317
37 1.39281
38 1.39245
39 1.39208
40 1.39169
41 1.3913
42 1.3909
43 1.39049
44 1.39008
45 1.38965
46 1.38922
47 1.38877
48 1.38832
49 1.38786
50 1.38739
51 1.38692
52 1.38643
53 1.38594
54 1.38544
55 1.38493
56 1.38441
57 1.38388
58 1.38335
59 1.38281
60 1.38226
61 1.3817
62 1.38114
63 1.38057
64 1.37999
65 1.3794
66 1.37881
67 1.37821
68 1.3776
69 1.37699
70 1.37637
71 1.37574
72 1.3751
73 1.37446
74 1.37381
75 1.37316
76 1.3725
77 1.37183
78 1.37116
79 1.37048
80 1.36979
81 1.3691
82 1.3684
83 1.3677
84 1.36699
85 1.36627
86 1.36555
87 1.36482
88 1.36409
89 1.36335
90 1.36261
91 1.36186
92 1.36111
93 1.36035
94 1.35959
95 1.35882
96 1.35804
97 1.35727
98 1.35648
99 1.3557
100 1.35491
101 1.35411
102 1.35331
103 1.35251
104 1.3517
105 1.35088
106 1.35007
107 1.34925
108 1.34842
109 1.3476
110 1.34676
111 1.34593
112 1.34509
113 1.34425
114 1.3434
115 1.34255
116 1.3417
117 1.34085
118 1.33999
119 1.33913
120 1.33826
121 1.3374
122 1.33653
123 1.33566
124 1.33478
125 1.33391
126 1.33303
127 1.33214
128 1.33126
129 1.33037
130 1.32949
131 1.3286
132 1.3277
133 1.32681
134 1.32591
135 1.32502
136 1.32412
137 1.32322
138 1.32231
139 1.32141
140 1.3205
141 1.3196
142 1.31869
143 1.31778
144 1.31687
145 1.31596
146 1.31504
147 1.31413
148 1.31322
149 1.3123
150 1.31139
151 1.31047
152 1.30955
153 1.30863
154 1.30771
155 1.3068
156 1.30588
157 1.30496
158 1.30404
159 1.30312
160 1.3022
161 1.30127
162 1.30035
163 1.29943
164 1.29851
165 1.29759
166 1.29667
167 1.29575
168 1.29483
169 1.29391
170 1.29299
171 1.29207
172 1.29115
173 1.29023
174 1.28932
175 1.2884
176 1.28748
177 1.28656
178 1.28565
179 1.28473
180 1.28382
181 1.28291
182 1.28199
183 1.28108
184 1.28017
185 1.27926
186 1.27835
187 1.27745
188 1.27654
189 1.27564
190 1.27473
191 1.27383
192 1.27293
193 1.27203
194 1.27113
195 1.27023
196 1.26933
197 1.26844
198 1.26754
199 1.26665
200 1.26576
201 1.26487
202 1.26398
203 1.2631
204 1.26221
205 1.26133
206 1.26045
207 1.25957
208 1.25869
209 1.25781
210 1.25694
211 1.25607
212 1.2552
213 1.25433
214 1.25346
215 1.2526
216 1.25173
217 1.25087
218 1.25001
219 1.24915
220 1.2483
221 1.24744
222 1.24659
223 1.24574
224 1.2449
225 1.24405
226 1.24321
227 1.24237
228 1.24153
229 1.24069
230 1.23985
231 1.23902
232 1.23819
233 1.23736
234 1.23654
235 1.23571
236 1.23489
237 1.23407
238 1.23326
239 1.23244
240 1.23163
241 1.23082
242 1.23001
243 1.2292
244 1.2284
245 1.2276
246 1.2268
247 1.22601
248 1.22521
249 1.22442
250 1.22363
251 1.22284
252 1.22206
253 1.22128
254 1.2205
255 1.21972
256 1.21895
257 1.21818
258 1.21741
259 1.21664
260 1.21587
261 1.21511
262 1.21435
263 1.2136
264 1.21284
265 1.21209
266 1.21134
267 1.21059
268 1.20985
269 1.2091
270 1.20836
271 1.20763
272 1.20689
273 1.20616
274 1.20543
275 1.2047
276 1.20398
277 1.20326
278 1.20254
279 1.20182
280 1.2011
281 1.20039
282 1.19968
283 1.19897
284 1.19827
285 1.19757
286 1.19687
287 1.19617
288 1.19548
289 1.19478
290 1.19409
291 1.19341
292 1.19272
293 1.19204
294 1.19136
295 1.19068
296 1.19001
297 1.18934
298 1.18867
299 1.188
300 1.18734
301 1.18667
302 1.18601
303 1.18536
304 1.1847
305 1.18405
306 1.1834
307 1.18275
308 1.18211
309 1.18147
310 1.18083
311 1.18019
312 1.17955
313 1.17892
314 1.17829
315 1.17766
316 1.17704
317 1.17641
318 1.17579
319 1.17518
320 1.17456
321 1.17395
322 1.17334
323 1.17273
324 1.17212
325 1.17152
326 1.17092
327 1.17032
328 1.16972
329 1.16913
330 1.16854
331 1.16795
332 1.16736
333 1.16677
334 1.16619
335 1.16561
336 1.16503
337 1.16446
338 1.16389
339 1.16331
340 1.16275
341 1.16218
342 1.16162
343 1.16105
344 1.16049
345 1.15994
346 1.15938
347 1.15883
348 1.15828
349 1.15773
350 1.15719
351 1.15664
352 1.1561
353 1.15556
354 1.15502
355 1.15449
356 1.15396
357 1.15343
358 1.1529
359 1.15237
360 1.15185
361 1.15132
362 1.1508
363 1.15029
364 1.14977
365 1.14926
366 1.14875
367 1.14824
368 1.14773
369 1.14723
370 1.14672
371 1.14622
372 1.14572
373 1.14523
374 1.14473
375 1.14424
376 1.14375
377 1.14326
378 1.14277
379 1.14229
380 1.14181
381 1.14133
382 1.14085
383 1.14037
384 1.1399
385 1.13942
386 1.13895
387 1.13848
388 1.13802
389 1.13755
390 1.13709
391 1.13663
392 1.13617
393 1.13571
394 1.13526
395 1.13481
396 1.13435
397 1.1339
398 1.13346
399 1.13301
400 1.13257
401 1.13213
402 1.13168
403 1.13125
404 1.13081
405 1.13038
406 1.12994
407 1.12951
408 1.12908
409 1.12865
410 1.12823
411 1.12781
412 1.12738
413 1.12696
414 1.12654
415 1.12613
416 1.12571
417 1.1253
418 1.12489
419 1.12448
420 1.12407
421 1.12366
422 1.12326
423 1.12285
424 1.12245
425 1.12205
426 1.12166
427 1.12126
428 1.12086
429 1.12047
430 1.12008
431 1.11969
432 1.1193
433 1.11891
434 1.11853
435 1.11815
436 1.11776
437 1.11738
438 1.11701
439 1.11663
440 1.11625
441 1.11588
442 1.11551
443 1.11514
444 1.11477
445 1.1144
446 1.11403
447 1.11367
448 1.11331
449 1.11294
450 1.11258
451 1.11222
452 1.11187
453 1.11151
454 1.11116
455 1.11081
456 1.11045
457 1.1101
458 1.10976
459 1.10941
460 1.10906
461 1.10872
462 1.10838
463 1.10804
464 1.1077
465 1.10736
466 1.10702
467 1.10668
468 1.10635
469 1.10602
470 1.10569
471 1.10536
472 1.10503
473 1.1047
474 1.10437
475 1.10405
476 1.10373
477 1.1034
478 1.10308
479 1.10276
480 1.10245
481 1.10213
482 1.10181
483 1.1015
484 1.10119
485 1.10087
486 1.10056
487 1.10026
488 1.09995
489 1.09964
490 1.09934
491 1.09903
492 1.09873
493 1.09843
494 1.09813
495 1.09783
496 1.09753
497 1.09723
498 1.09694
499 1.09664
500 1.09635
501 1.09606
502 1.09577
503 1.09548
504 1.09519
505 1.0949
506 1.09462
507 1.09433
508 1.09405
509 1.09377
510 1.09348
511 1.0932
512 1.09293
513 1.09265
514 1.09237
515 1.09209
516 1.09182
517 1.09155
518 1.09127
519 1.091
520 1.09073
521 1.09046
522 1.09019
523 1.08993
524 1.08966
525 1.0894
526 1.08913
527 1.08887
528 1.08861
529 1.08835
530 1.08809
531 1.08783
532 1.08757
533 1.08732
534 1.08706
535 1.08681
536 1.08655
537 1.0863
538 1.08605
539 1.0858
540 1.08555
541 1.0853
542 1.08505
543 1.08481
544 1.08456
545 1.08432
546 1.08407
547 1.08383
548 1.08359
549 1.08335
550 1.08311
551 1.08287
552 1.08263
553 1.08239
554 1.08216
555 1.08192
556 1.08169
557 1.08145
558 1.08122
559 1.08099
560 1.08076
561 1.08053
562 1.0803
563 1.08007
564 1.07985
565 1.07962
566 1.07939
567 1.07917
568 1.07895
569 1.07872
570 1.0785
571 1.07828
572 1.07806
573 1.07784
574 1.07762
575 1.07741
576 1.07719
577 1.07697
578 1.07676
579 1.07654
580 1.07633
581 1.07612
582 1.07591
583 1.0757
584 1.07549
585 1.07528
586 1.07507
587 1.07486
588 1.07465
589 1.07445
590 1.07424
591 1.07404
592 1.07383
593 1.07363
594 1.07343
595 1.07323
596 1.07303
597 1.07283
598 1.07263
599 1.07243
600 1.07223
601 1.07204
602 1.07184
603 1.07164
604 1.07145
605 1.07126
606 1.07106
607 1.07087
608 1.07068
609 1.07049
610 1.0703
611 1.07011
612 1.06992
613 1.06973
614 1.06954
615 1.06936
616 1.06917
617 1.06898
618 1.0688
619 1.06862
620 1.06843
621 1.06825
622 1.06807
623 1.06789
624 1.06771
625 1.06753
626 1.06735
627 1.06717
628 1.06699
629 1.06681
630 1.06664
631 1.06646
632 1.06629
633 1.06611
634 1.06594
635 1.06576
636 1.06559
637 1.06542
638 1.06525
639 1.06508
640 1.06491
641 1.06474
642 1.06457
643 1.0644
644 1.06423
645 1.06406
646 1.0639
647 1.06373
648 1.06357
649 1.0634
650 1.06324
651 1.06307
652 1.06291
653 1.06275
654 1.06259
655 1.06243
656 1.06227
657 1.06211
658 1.06195
659 1.06179
660 1.06163
661 1.06147
662 1.06131
663 1.06116
664 1.061
665 1.06085
666 1.06069
667 1.06054
668 1.06038
669 1.06023
670 1.06008
671 1.05993
672 1.05977
673 1.05962
674 1.05947
675 1.05932
676 1.05917
677 1.05902
678 1.05888
679 1.05873
680 1.05858
681 1.05843
682 1.05829
683 1.05814
684 1.058
685 1.05785
686 1.05771
687 1.05756
688 1.05742
689 1.05728
690 1.05714
691 1.05699
692 1.05685
693 1.05671
694 1.05657
695 1.05643
696 1.05629
697 1.05616
698 1.05602
699 1.05588
700 1.05574
701 1.0556
702 1.05547
703 1.05533
704 1.0552
705 1.05506
706 1.05493
707 1.05479
708 1.05466
709 1.05453
710 1.05439
711 1.05426
712 1.05413
713 1.054
714 1.05387
715 1.05374
716 1.05361
717 1.05348
718 1.05335
719 1.05322
720 1.05309
721 1.05297
722 1.05284
723 1.05271
724 1.05259
725 1.05246
726 1.05233
727 1.05221
728 1.05208
729 1.05196
730 1.05184
731 1.05171
732 1.05159
733 1.05147
734 1.05135
735 1.05122
736 1.0511
737 1.05098
738 1.05086
739 1.05074
740 1.05062
741 1.0505
742 1.05038
743 1.05026
744 1.05015
745 1.05003
746 1.04991
747 1.04979
748 1.04968
749 1.04956
750 1.04945
751 1.04933
752 1.04922
753 1.0491
754 1.04899
755 1.04887
756 1.04876
757 1.04865
758 1.04853
759 1.04842
760 1.04831
761 1.0482
762 1.04809
763 1.04798
764 1.04787
765 1.04776
766 1.04765
767 1.04754
768 1.04743
769 1.04732
770 1.04721
771 1.0471
772 1.04699
773 1.04689
774 1.04678
775 1.04667
776 1.04657
777 1.04646
778 1.04636
779 1.04625
780 1.04615
781 1.04604
782 1.04594
783 1.04583
784 1.04573
785 1.04563
786 1.04552
787 1.04542
788 1.04532
789 1.04522
790 1.04512
791 1.04502
792 1.04491
793 1.04481
794 1.04471
795 1.04461
796 1.04451
797 1.04442
798 1.04432
799 1.04422
800 1.04412
801 1.04402
802 1.04392
803 1.04383
804 1.04373
805 1.04363
806 1.04354
807 1.04344
808 1.04334
809 1.04325
810 1.04315
811 1.04306
812 1.04296
813 1.04287
814 1.04278
815 1.04268
816 1.04259
817 1.0425
818 1.0424
819 1.04231
820 1.04222
821 1.04213
822 1.04203
823 1.04194
824 1.04185
825 1.04176
826 1.04167
827 1.04158
828 1.04149
829 1.0414
830 1.04131
831 1.04122
832 1.04113
833 1.04105
834 1.04096
835 1.04087
836 1.04078
837 1.04069
838 1.04061
839 1.04052
840 1.04043
841 1.04035
842 1.04026
843 1.04017
844 1.04009
845 1.04
846 1.03992
847 1.03983
848 1.03975
849 1.03966
850 1.03958
851 1.0395
852 1.03941
853 1.03933
854 1.03925
855 1.03916
856 1.03908
857 1.039
858 1.03892
859 1.03884
860 1.03875
861 1.03867
862 1.03859
863 1.03851
864 1.03843
865 1.03835
866 1.03827
867 1.03819
868 1.03811
869 1.03803
870 1.03795
871 1.03787
872 1.0378
873 1.03772
874 1.03764
875 1.03756
876 1.03748
877 1.03741
878 1.03733
879 1.03725
880 1.03717
881 1.0371
882 1.03702
883 1.03695
884 1.03687
885 1.03679
886 1.03672
887 1.03664
888 1.03657
889 1.03649
890 1.03642
891 1.03635
892 1.03627
893 1.0362
894 1.03612
895 1.03605
896 1.03598
897 1.0359
898 1.03583
899 1.03576
900 1.03569
901 1.03561
902 1.03554
903 1.03547
904 1.0354
905 1.03533
906 1.03526
907 1.03519
908 1.03512
909 1.03505
910 1.03498
911 1.03491
912 1.03484
913 1.03477
914 1.0347
915 1.03463
916 1.03456
917 1.03449
918 1.03442
919 1.03435
920 1.03428
921 1.03422
922 1.03415
923 1.03408
924 1.03401
925 1.03395
926 1.03388
927 1.03381
928 1.03375
929 1.03368
930 1.03361
931 1.03355
932 1.03348
933 1.03341
934 1.03335
935 1.03328
936 1.03322
937 1.03315
938 1.03309
939 1.03302
940 1.03296
941 1.0329
942 1.03283
943 1.03277
944 1.0327
945 1.03264
946 1.03258
947 1.03251
948 1.03245
949 1.03239
950 1.03233
951 1.03226
952 1.0322
953 1.03214
954 1.03208
955 1.03201
956 1.03195
957 1.03189
958 1.03183
959 1.03177
960 1.03171
961 1.03165
962 1.03159
963 1.03153
964 1.03147
965 1.03141
966 1.03135
967 1.03129
968 1.03123
969 1.03117
970 1.03111
971 1.03105
972 1.03099
973 1.03093
974 1.03087
975 1.03082
976 1.03076
977 1.0307
978 1.03064
979 1.03058
980 1.03053
981 1.03047
982 1.03041
983 1.03035
984 1.0303
985 1.03024
986 1.03018
987 1.03013
988 1.03007
989 1.03001
990 1.02996
991 1.0299
992 1.02985
993 1.02979
994 1.02974
995 1.02968
996 1.02962
997 1.02957
998 1.02951
999 1.02946
1000 1.02941
1001 1.02935
1002 1.0293
1003 1.02924
1004 1.02919
1005 1.02913
1006 1.02908
1007 1.02903
1008 1.02897
1009 1.02892
1010 1.02887
1011 1.02881
1012 1.02876
1013 1.02871
1014 1.02866
1015 1.0286
1016 1.02855
1017 1.0285
1018 1.02845
1019 1.0284
1020 1.02834
1021 1.02829
1022 1.02824
1023 1.02819
1024 1.02814
1025 1.02809
1026 1.02804
1027 1.02799
1028 1.02794
1029 1.02789
1030 1.02784
1031 1.02778
1032 1.02773
1033 1.02768
1034 1.02764
1035 1.02759
1036 1.02754
1037 1.02749
1038 1.02744
1039 1.02739
1040 1.02734
1041 1.02729
1042 1.02724
1043 1.02719
1044 1.02714
1045 1.0271
1046 1.02705
1047 1.027
1048 1.02695
1049 1.0269
1050 1.02686
1051 1.02681
1052 1.02676
1053 1.02671
1054 1.02667
1055 1.02662
1056 1.02657
1057 1.02652
1058 1.02648
1059 1.02643
1060 1.02638
1061 1.02634
1062 1.02629
1063 1.02625
1064 1.0262
1065 1.02615
1066 1.02611
1067 1.02606
1068 1.02602
1069 1.02597
1070 1.02593
1071 1.02588
1072 1.02583
1073 1.02579
1074 1.02575
1075 1.0257
1076 1.02566
1077 1.02561
1078 1.02557
1079 1.02552
1080 1.02548
1081 1.02543
1082 1.02539
1083 1.02535
1084 1.0253
1085 1.02526
1086 1.02521
1087 1.02517
1088 1.02513
1089 1.02508
1090 1.02504
1091 1.025
1092 1.02496
1093 1.02491
1094 1.02487
1095 1.02483
1096 1.02479
1097 1.02474
1098 1.0247
1099 1.02466
1100 1.02462
1101 1.02457
1102 1.02453
1103 1.02449
1104 1.02445
1105 1.02441
1106 1.02437
1107 1.02433
1108 1.02428
1109 1.02424
1110 1.0242
1111 1.02416
1112 1.02412
1113 1.02408
1114 1.02404
1115 1.024
1116 1.02396
1117 1.02392
1118 1.02388
1119 1.02384
1120 1.0238
1121 1.02376
1122 1.02372
1123 1.02368
1124 1.02364
1125 1.0236
1126 1.02356
1127 1.02352
1128 1.02348
1129 1.02344
1130 1.0234
1131 1.02336
1132 1.02332
1133 1.02329
1134 1.02325
1135 1.02321
1136 1.02317
1137 1.02313
1138 1.02309
1139 1.02306
1140 1.02302
1141 1.02298
1142 1.02294
1143 1.0229
1144 1.02287
1145 1.02283
1146 1.02279
1147 1.02275
1148 1.02272
1149 1.02268
1150 1.02264
1151 1.0226
1152 1.02257
1153 1.02253
1154 1.02249
1155 1.02246
1156 1.02242
1157 1.02238
1158 1.02235
1159 1.02231
1160 1.02227
1161 1.02224
1162 1.0222
1163 1.02217
1164 1.02213
1165 1.02209
1166 1.02206
1167 1.02202
1168 1.02199
1169 1.02195
1170 1.02192
1171 1.02188
1172 1.02185
1173 1.02181
1174 1.02177
1175 1.02174
1176 1.0217
1177 1.02167
1178 1.02164
1179 1.0216
1180 1.02157
1181 1.02153
1182 1.0215
1183 1.02146
1184 1.02143
1185 1.02139
1186 1.02136
1187 1.02133
1188 1.02129
1189 1.02126
1190 1.02122
1191 1.02119
1192 1.02116
1193 1.02112
1194 1.02109
1195 1.02106
1196 1.02102
1197 1.02099
1198 1.02096
1199 1.02092
1200 1.02089
1201 1.02086
1202 1.02082
1203 1.02079
1204 1.02076
1205 1.02073
1206 1.02069
1207 1.02066
1208 1.02063
1209 1.0206
1210 1.02056
1211 1.02053
1212 1.0205
1213 1.02047
1214 1.02044
1215 1.0204
1216 1.02037
1217 1.02034
1218 1.02031
1219 1.02028
1220 1.02025
1221 1.02021
1222 1.02018
1223 1.02015
1224 1.02012
1225 1.02009
1226 1.02006
1227 1.02003
1228 1.02
1229 1.01996
1230 1.01993
1231 1.0199
1232 1.01987
1233 1.01984
1234 1.01981
1235 1.01978
1236 1.01975
1237 1.01972
1238 1.01969
1239 1.01966
1240 1.01963
1241 1.0196
1242 1.01957
1243 1.01954
1244 1.01951
1245 1.01948
1246 1.01945
1247 1.01942
1248 1.01939
1249 1.01936
1250 1.01933
1251 1.0193
1252 1.01927
1253 1.01924
1254 1.01921
1255 1.01919
1256 1.01916
1257 1.01913
1258 1.0191
1259 1.01907
1260 1.01904
1261 1.01901
1262 1.01898
1263 1.01895
1264 1.01893
1265 1.0189
1266 1.01887
1267 1.01884
1268 1.01881
1269 1.01878
1270 1.01876
1271 1.01873
1272 1.0187
1273 1.01867
1274 1.01864
1275 1.01862
1276 1.01859
1277 1.01856
1278 1.01853
1279 1.01851
1280 1.01848
1281 1.01845
1282 1.01842
1283 1.0184
1284 1.01837
1285 1.01834
1286 1.01831
1287 1.01829
1288 1.01826
1289 1.01823
1290 1.01821
1291 1.01818
1292 1.01815
1293 1.01812
1294 1.0181
1295 1.01807
1296 1.01804
1297 1.01802
1298 1.01799
1299 1.01797
1300 1.01794
1301 1.01791
1302 1.01789
1303 1.01786
1304 1.01783
1305 1.01781
1306 1.01778
1307 1.01776
1308 1.01773
1309 1.0177
1310 1.01768
1311 1.01765
1312 1.01763
1313 1.0176
1314 1.01758
1315 1.01755
1316 1.01752
1317 1.0175
1318 1.01747
1319 1.01745
1320 1.01742
1321 1.0174
1322 1.01737
1323 1.01735
1324 1.01732
1325 1.0173
1326 1.01727
1327 1.01725
1328 1.01722
1329 1.0172
1330 1.01717
1331 1.01715
1332 1.01712
1333 1.0171
1334 1.01707
1335 1.01705
1336 1.01703
1337 1.017
1338 1.01698
1339 1.01695
1340 1.01693
1341 1.0169
1342 1.01688
1343 1.01686
1344 1.01683
1345 1.01681
1346 1.01678
1347 1.01676
1348 1.01674
1349 1.01671
1350 1.01669
1351 1.01667
1352 1.01664
1353 1.01662
1354 1.01659
1355 1.01657
1356 1.01655
1357 1.01652
1358 1.0165
1359 1.01648
1360 1.01645
1361 1.01643
1362 1.01641
1363 1.01639
1364 1.01636
1365 1.01634
1366 1.01632
1367 1.01629
1368 1.01627
1369 1.01625
1370 1.01622
1371 1.0162
1372 1.01618
1373 1.01616
1374 1.01613
1375 1.01611
1376 1.01609
1377 1.01607
1378 1.01604
1379 1.01602
1380 1.016
1381 1.01598
1382 1.01596
1383 1.01593
1384 1.01591
1385 1.01589
1386 1.01587
1387 1.01585
1388 1.01582
1389 1.0158
1390 1.01578
1391 1.01576
1392 1.01574
1393 1.01571
1394 1.01569
1395 1.01567
1396 1.01565
1397 1.01563
1398 1.01561
1399 1.01559
1400 1.01556
1401 1.01554
1402 1.01552
1403 1.0155
1404 1.01548
1405 1.01546
1406 1.01544
1407 1.01542
1408 1.01539
1409 1.01537
1410 1.01535
1411 1.01533
1412 1.01531
1413 1.01529
1414 1.01527
1415 1.01525
1416 1.01523
1417 1.01521
1418 1.01519
1419 1.01517
1420 1.01514
1421 1.01512
1422 1.0151
1423 1.01508
1424 1.01506
1425 1.01504
1426 1.01502
1427 1.015
1428 1.01498
1429 1.01496
1430 1.01494
1431 1.01492
1432 1.0149
1433 1.01488
1434 1.01486
1435 1.01484
1436 1.01482
1437 1.0148
1438 1.01478
1439 1.01476
1440 1.01474
1441 1.01472
1442 1.0147
1443 1.01468
1444 1.01466
1445 1.01464
1446 1.01462
1447 1.01461
1448 1.01459
1449 1.01457
1450 1.01455
1451 1.01453
1452 1.01451
1453 1.01449
1454 1.01447
1455 1.01445
1456 1.01443
1457 1.01441
1458 1.01439
1459 1.01437
1460 1.01436
1461 1.01434
1462 1.01432
1463 1.0143
1464 1.01428
1465 1.01426
1466 1.01424
1467 1.01422
1468 1.01421
1469 1.01419
1470 1.01417
1471 1.01415
1472 1.01413
1473 1.01411
1474 1.01409
1475 1.01408
1476 1.01406
1477 1.01404
1478 1.01402
1479 1.014
1480 1.01398
1481 1.01397
1482 1.01395
1483 1.01393
1484 1.01391
1485 1.01389
1486 1.01388
1487 1.01386
1488 1.01384
1489 1.01382
1490 1.0138
1491 1.01379
1492 1.01377
1493 1.01375
1494 1.01373
1495 1.01371
1496 1.0137
1497 1.01368
1498 1.01366
1499 1.01364
1500 1.01363
1501 1.01361
1502 1.01359
1503 1.01357
1504 1.01356
1505 1.01354
1506 1.01352
1507 1.0135
1508 1.01349
1509 1.01347
1510 1.01345
1511 1.01344
1512 1.01342
1513 1.0134
1514 1.01338
1515 1.01337
1516 1.01335
1517 1.01333
1518 1.01332
1519 1.0133
1520 1.01328
1521 1.01326
1522 1.01325
1523 1.01323
1524 1.01321
1525 1.0132
1526 1.01318
1527 1.01316
1528 1.01315
1529 1.01313
1530 1.01311
1531 1.0131
1532 1.01308
1533 1.01306
1534 1.01305
1535 1.01303
1536 1.01302
1537 1.013
1538 1.01298
1539 1.01297
1540 1.01295
1541 1.01293
1542 1.01292
1543 1.0129
1544 1.01289
1545 1.01287
1546 1.01285
1547 1.01284
1548 1.01282
1549 1.0128
1550 1.01279
1551 1.01277
1552 1.01276
1553 1.01274
1554 1.01273
1555 1.01271
1556 1.01269
1557 1.01268
1558 1.01266
1559 1.01265
1560 1.01263
1561 1.01262
1562 1.0126
1563 1.01258
1564 1.01257
1565 1.01255
1566 1.01254
1567 1.01252
1568 1.01251
1569 1.01249
1570 1.01248
1571 1.01246
1572 1.01244
1573 1.01243
1574 1.01241
1575 1.0124
1576 1.01238
1577 1.01237
1578 1.01235
1579 1.01234
1580 1.01232
1581 1.01231
1582 1.01229
1583 1.01228
1584 1.01226
1585 1.01225
1586 1.01223
1587 1.01222
1588 1.0122
1589 1.01219
1590 1.01217
1591 1.01216
1592 1.01214
1593 1.01213
1594 1.01211
1595 1.0121
1596 1.01208
1597 1.01207
1598 1.01206
1599 1.01204
1600 1.01203
1601 1.01201
1602 1.012
1603 1.01198
1604 1.01197
1605 1.01195
1606 1.01194
1607 1.01192
1608 1.01191
1609 1.0119
1610 1.01188
1611 1.01187
1612 1.01185
1613 1.01184
1614 1.01182
1615 1.01181
1616 1.0118
1617 1.01178
1618 1.01177
1619 1.01175
1620 1.01174
1621 1.01173
1622 1.01171
1623 1.0117
1624 1.01168
1625 1.01167
1626 1.01166
1627 1.01164
1628 1.01163
1629 1.01161
1630 1.0116
1631 1.01159
1632 1.01157
