### FSI tabel with Verma Potential (2-Gauss potential) #####
# krel [MeV] # Influence Factor(S) # Influence Factor(T)
1 9.82559 7.40708
2 9.81791 7.40321
3 9.80514 7.39679
4 9.78732 7.38782
5 9.76452 7.37631
6 9.73681 7.36231
7 9.70429 7.34585
8 9.66707 7.32695
9 9.62527 7.30567
10 9.57902 7.28206
11 9.52848 7.25617
12 9.47381 7.22805
13 9.41517 7.19777
14 9.35274 7.16541
15 9.28672 7.13101
16 9.21728 7.09467
17 9.14463 7.05645
18 9.06897 7.01644
19 8.9905 6.97471
20 8.90943 6.93135
21 8.82595 6.88644
22 8.74027 6.84006
23 8.65259 6.79231
24 8.56311 6.74325
25 8.47203 6.69299
26 8.37953 6.6416
27 8.2858 6.58917
28 8.19101 6.53578
29 8.09535 6.48151
30 7.99897 6.42645
31 7.90204 6.37068
32 7.80471 6.31426
33 7.70713 6.25729
34 7.60943 6.19982
35 7.51175 6.14194
36 7.41421 6.08371
37 7.31691 6.02521
38 7.21998 5.96648
39 7.12351 5.9076
40 7.0276 5.84862
41 6.93233 5.7896
42 6.83778 5.7306
43 6.74402 5.67167
44 6.65113 5.61285
45 6.55916 5.55419
46 6.46817 5.49573
47 6.3782 5.43752
48 6.28931 5.3796
49 6.20153 5.32199
50 6.11489 5.26474
51 6.02942 5.20788
52 5.94516 5.15143
53 5.86212 5.09542
54 5.78031 5.03988
55 5.69976 4.98483
56 5.62048 4.93029
57 5.54246 4.87627
58 5.46573 4.82281
59 5.39028 4.76991
60 5.3161 4.71758
61 5.24321 4.66585
62 5.1716 4.61471
63 5.10125 4.56419
64 5.03217 4.51428
65 4.96434 4.465
66 4.89776 4.41634
67 4.83241 4.36833
68 4.76828 4.32095
69 4.70535 4.27421
70 4.64363 4.22812
71 4.58307 4.18267
72 4.52369 4.13786
73 4.46545 4.0937
74 4.40833 4.05018
75 4.35233 4.0073
76 4.29743 3.96506
77 4.2436 3.92345
78 4.19083 3.88247
79 4.13911 3.84212
80 4.0884 3.80239
81 4.0387 3.76327
82 3.98999 3.72477
83 3.94224 3.68687
84 3.89544 3.64957
85 3.84958 3.61286
86 3.80462 3.57674
87 3.76057 3.5412
88 3.71738 3.50623
89 3.67506 3.47183
90 3.63358 3.43799
91 3.59293 3.4047
92 3.55308 3.37195
93 3.51402 3.33974
94 3.47573 3.30805
95 3.43821 3.27689
96 3.40142 3.24625
97 3.36536 3.2161
98 3.33001 3.18646
99 3.29535 3.15731
100 3.26138 3.12864
101 3.22806 3.10044
102 3.1954 3.07271
103 3.16338 3.04545
104 3.13197 3.01863
105 3.10117 2.99226
106 3.07097 2.96633
107 3.04135 2.94082
108 3.0123 2.91574
109 2.98381 2.89108
110 2.95586 2.86682
111 2.92844 2.84297
112 2.90154 2.81951
113 2.87515 2.79643
114 2.84926 2.77374
115 2.82385 2.75142
116 2.79892 2.72947
117 2.77446 2.70788
118 2.75045 2.68664
119 2.72688 2.66575
120 2.70375 2.6452
121 2.68105 2.62498
122 2.65876 2.6051
123 2.63688 2.58554
124 2.61539 2.56629
125 2.5943 2.54736
126 2.57359 2.52873
127 2.55325 2.5104
128 2.53327 2.49237
129 2.51365 2.47463
130 2.49438 2.45717
131 2.47545 2.43998
132 2.45686 2.42307
133 2.43859 2.40643
134 2.42064 2.39006
135 2.403 2.37394
136 2.38567 2.35807
137 2.36864 2.34246
138 2.35191 2.32709
139 2.33546 2.31196
140 2.31929 2.29706
141 2.30339 2.2824
142 2.28777 2.26796
143 2.27241 2.25375
144 2.2573 2.23975
145 2.24245 2.22597
146 2.22785 2.2124
147 2.21349 2.19904
148 2.19937 2.18588
149 2.18548 2.17291
150 2.17182 2.16015
151 2.15838 2.14758
152 2.14516 2.13519
153 2.13215 2.12299
154 2.11935 2.11098
155 2.10676 2.09914
156 2.09437 2.08748
157 2.08218 2.07599
158 2.07018 2.06466
159 2.05837 2.05351
160 2.04674 2.04252
161 2.0353 2.03169
162 2.02403 2.02101
163 2.01295 2.01049
164 2.00203 2.00012
165 1.99128 1.9899
166 1.98069 1.97983
167 1.97027 1.9699
168 1.96001 1.96012
169 1.9499 1.95047
170 1.93994 1.94095
171 1.93014 1.93158
172 1.92048 1.92233
173 1.91096 1.91321
174 1.90159 1.90422
175 1.89235 1.89536
176 1.88325 1.88662
177 1.87428 1.878
178 1.86545 1.86949
179 1.85674 1.86111
180 1.84816 1.85284
181 1.8397 1.84468
182 1.83137 1.83663
183 1.82315 1.82869
184 1.81505 1.82086
185 1.80707 1.81313
186 1.7992 1.80551
187 1.79144 1.79798
188 1.78379 1.79056
189 1.77624 1.78324
190 1.7688 1.77601
191 1.76146 1.76888
192 1.75423 1.76184
193 1.74709 1.75489
194 1.74005 1.74804
195 1.73311 1.74127
196 1.72626 1.73459
197 1.71951 1.728
198 1.71285 1.72149
199 1.70627 1.71506
200 1.69978 1.70872
201 1.69338 1.70245
202 1.68707 1.69627
203 1.68084 1.69016
204 1.67469 1.68413
205 1.66862 1.67818
206 1.66263 1.6723
207 1.65672 1.6665
208 1.65088 1.66076
209 1.64512 1.6551
210 1.63944 1.64951
211 1.63382 1.64398
212 1.62828 1.63852
213 1.62281 1.63313
214 1.61741 1.62781
215 1.61208 1.62255
216 1.60681 1.61735
217 1.60161 1.61222
218 1.59648 1.60714
219 1.59141 1.60213
220 1.5864 1.59718
221 1.58146 1.59229
222 1.57657 1.58745
223 1.57174 1.58267
224 1.56698 1.57795
225 1.56227 1.57328
226 1.55762 1.56867
227 1.55302 1.56411
228 1.54848 1.5596
229 1.544 1.55515
230 1.53957 1.55075
231 1.53519 1.54639
232 1.53086 1.54209
233 1.52659 1.53784
234 1.52236 1.53363
235 1.51818 1.52947
236 1.51406 1.52536
237 1.50998 1.5213
238 1.50595 1.51728
239 1.50196 1.51331
240 1.49802 1.50938
241 1.49413 1.50549
242 1.49028 1.50165
243 1.48648 1.49785
244 1.48271 1.49409
245 1.479 1.49037
246 1.47532 1.4867
247 1.47168 1.48306
248 1.46809 1.47946
249 1.46453 1.47591
250 1.46102 1.47239
251 1.45754 1.4689
252 1.4541 1.46546
253 1.4507 1.46205
254 1.44734 1.45868
255 1.44402 1.45535
256 1.44073 1.45205
257 1.43747 1.44878
258 1.43426 1.44555
259 1.43107 1.44235
260 1.42792 1.43919
261 1.42481 1.43606
262 1.42173 1.43296
263 1.41868 1.4299
264 1.41566 1.42686
265 1.41267 1.42386
266 1.40972 1.42089
267 1.4068 1.41795
268 1.40391 1.41503
269 1.40105 1.41215
270 1.39822 1.4093
271 1.39541 1.40648
272 1.39264 1.40368
273 1.3899 1.40091
274 1.38718 1.39817
275 1.38449 1.39546
276 1.38183 1.39278
277 1.3792 1.39012
278 1.37659 1.38749
279 1.37401 1.38488
280 1.37145 1.3823
281 1.36893 1.37974
282 1.36642 1.37721
283 1.36394 1.37471
284 1.36149 1.37223
285 1.35906 1.36977
286 1.35666 1.36734
287 1.35427 1.36493
288 1.35192 1.36254
289 1.34958 1.36018
290 1.34727 1.35783
291 1.34498 1.35552
292 1.34271 1.35322
293 1.34047 1.35094
294 1.33824 1.34869
295 1.33604 1.34646
296 1.33386 1.34425
297 1.3317 1.34206
298 1.32956 1.33989
299 1.32744 1.33774
300 1.32534 1.33561
301 1.32326 1.33349
302 1.3212 1.3314
303 1.31916 1.32933
304 1.31714 1.32728
305 1.31514 1.32525
306 1.31316 1.32323
307 1.31119 1.32123
308 1.30925 1.31925
309 1.30732 1.31729
310 1.30541 1.31535
311 1.30351 1.31343
312 1.30164 1.31152
313 1.29978 1.30963
314 1.29794 1.30775
315 1.29611 1.30589
316 1.2943 1.30405
317 1.29251 1.30223
318 1.29073 1.30042
319 1.28897 1.29863
320 1.28723 1.29685
321 1.2855 1.29509
322 1.28378 1.29334
323 1.28209 1.29161
324 1.2804 1.28989
325 1.27873 1.28819
326 1.27708 1.28651
327 1.27544 1.28483
328 1.27382 1.28318
329 1.27221 1.28153
330 1.27061 1.2799
331 1.26903 1.27829
332 1.26746 1.27669
333 1.2659 1.2751
334 1.26436 1.27352
335 1.26283 1.27196
336 1.26131 1.27041
337 1.25981 1.26888
338 1.25832 1.26736
339 1.25684 1.26585
340 1.25538 1.26435
341 1.25393 1.26287
342 1.25249 1.26139
343 1.25106 1.25993
344 1.24964 1.25848
345 1.24824 1.25705
346 1.24684 1.25562
347 1.24546 1.25421
348 1.24409 1.25281
349 1.24273 1.25142
350 1.24139 1.25004
351 1.24005 1.24867
352 1.23873 1.24732
353 1.23741 1.24597
354 1.23611 1.24464
355 1.23482 1.24331
356 1.23353 1.242
357 1.23226 1.2407
358 1.231 1.2394
359 1.22975 1.23812
360 1.22851 1.23685
361 1.22727 1.23559
362 1.22605 1.23433
363 1.22484 1.23309
364 1.22364 1.23186
365 1.22244 1.23064
366 1.22126 1.22942
367 1.22009 1.22822
368 1.21892 1.22702
369 1.21777 1.22584
370 1.21662 1.22466
371 1.21548 1.22349
372 1.21435 1.22234
373 1.21323 1.22119
374 1.21212 1.22005
375 1.21102 1.21891
376 1.20992 1.21779
377 1.20884 1.21668
378 1.20776 1.21557
379 1.20669 1.21447
380 1.20563 1.21338
381 1.20458 1.2123
382 1.20353 1.21123
383 1.2025 1.21016
384 1.20147 1.2091
385 1.20044 1.20805
386 1.19943 1.20701
387 1.19842 1.20598
388 1.19743 1.20495
389 1.19643 1.20393
390 1.19545 1.20292
391 1.19447 1.20192
392 1.19351 1.20092
393 1.19254 1.19993
394 1.19159 1.19895
395 1.19064 1.19797
396 1.1897 1.19701
397 1.18877 1.19605
398 1.18784 1.19509
399 1.18692 1.19414
400 1.186 1.1932
401 1.1851 1.19227
402 1.1842 1.19134
403 1.1833 1.19042
404 1.18241 1.18951
405 1.18153 1.1886
406 1.18066 1.1877
407 1.17979 1.18681
408 1.17893 1.18592
409 1.17807 1.18504
410 1.17722 1.18416
411 1.17638 1.18329
412 1.17554 1.18243
413 1.17471 1.18157
414 1.17388 1.18072
415 1.17306 1.17988
416 1.17225 1.17904
417 1.17144 1.1782
418 1.17063 1.17737
419 1.16983 1.17655
420 1.16904 1.17573
421 1.16826 1.17492
422 1.16747 1.17412
423 1.1667 1.17332
424 1.16593 1.17252
425 1.16516 1.17173
426 1.1644 1.17095
427 1.16365 1.17017
428 1.1629 1.1694
429 1.16215 1.16863
430 1.16141 1.16787
431 1.16068 1.16711
432 1.15995 1.16636
433 1.15922 1.16561
434 1.1585 1.16487
435 1.15779 1.16413
436 1.15708 1.1634
437 1.15637 1.16267
438 1.15567 1.16195
439 1.15498 1.16123
440 1.15429 1.16051
441 1.1536 1.1598
442 1.15292 1.1591
443 1.15224 1.1584
444 1.15157 1.1577
445 1.1509 1.15701
446 1.15023 1.15633
447 1.14957 1.15565
448 1.14892 1.15497
449 1.14827 1.1543
450 1.14762 1.15363
451 1.14698 1.15296
452 1.14634 1.1523
453 1.1457 1.15165
454 1.14507 1.151
455 1.14445 1.15035
456 1.14382 1.14971
457 1.1432 1.14907
458 1.14259 1.14843
459 1.14198 1.1478
460 1.14137 1.14717
461 1.14077 1.14655
462 1.14017 1.14593
463 1.13957 1.14531
464 1.13898 1.1447
465 1.1384 1.1441
466 1.13781 1.14349
467 1.13723 1.14289
468 1.13665 1.14229
469 1.13608 1.1417
470 1.13551 1.14111
471 1.13495 1.14053
472 1.13438 1.13995
473 1.13382 1.13937
474 1.13327 1.13879
475 1.13272 1.13822
476 1.13217 1.13765
477 1.13162 1.13709
478 1.13108 1.13653
479 1.13054 1.13597
480 1.13001 1.13542
481 1.12947 1.13487
482 1.12895 1.13432
483 1.12842 1.13378
484 1.1279 1.13323
485 1.12738 1.1327
486 1.12686 1.13216
487 1.12635 1.13163
488 1.12584 1.1311
489 1.12533 1.13058
490 1.12483 1.13006
491 1.12433 1.12954
492 1.12383 1.12902
493 1.12334 1.12851
494 1.12284 1.128
495 1.12235 1.1275
496 1.12187 1.12699
497 1.12138 1.12649
498 1.1209 1.12599
499 1.12043 1.1255
500 1.11995 1.12501
501 1.11948 1.12452
502 1.11901 1.12403
503 1.11855 1.12355
504 1.11808 1.12307
505 1.11762 1.12259
506 1.11716 1.12212
507 1.11671 1.12164
508 1.11625 1.12118
509 1.1158 1.12071
510 1.11536 1.12024
511 1.11491 1.11978
512 1.11447 1.11932
513 1.11403 1.11887
514 1.11359 1.11841
515 1.11315 1.11796
516 1.11272 1.11752
517 1.11229 1.11707
518 1.11186 1.11663
519 1.11144 1.11619
520 1.11102 1.11575
521 1.1106 1.11531
522 1.11018 1.11488
523 1.10976 1.11445
524 1.10935 1.11402
525 1.10894 1.11359
526 1.10853 1.11317
527 1.10812 1.11275
528 1.10772 1.11233
529 1.10732 1.11191
530 1.10692 1.1115
531 1.10652 1.11108
532 1.10612 1.11067
533 1.10573 1.11027
534 1.10534 1.10986
535 1.10495 1.10946
536 1.10456 1.10906
537 1.10418 1.10866
538 1.1038 1.10826
539 1.10342 1.10787
540 1.10304 1.10747
541 1.10266 1.10708
542 1.10229 1.10669
543 1.10192 1.10631
544 1.10155 1.10592
545 1.10118 1.10554
546 1.10081 1.10516
547 1.10045 1.10478
548 1.10009 1.10441
549 1.09973 1.10403
550 1.09937 1.10366
551 1.09901 1.10329
552 1.09866 1.10293
553 1.09831 1.10256
554 1.09795 1.1022
555 1.09761 1.10183
556 1.09726 1.10147
557 1.09691 1.10111
558 1.09657 1.10076
559 1.09623 1.1004
560 1.09589 1.10005
561 1.09555 1.0997
562 1.09522 1.09935
563 1.09488 1.099
564 1.09455 1.09866
565 1.09422 1.09832
566 1.09389 1.09797
567 1.09356 1.09763
568 1.09324 1.0973
569 1.09291 1.09696
570 1.09259 1.09662
571 1.09227 1.09629
572 1.09195 1.09596
573 1.09163 1.09563
574 1.09132 1.0953
575 1.091 1.09498
576 1.09069 1.09465
577 1.09038 1.09433
578 1.09007 1.09401
579 1.08976 1.09369
580 1.08946 1.09337
581 1.08915 1.09305
582 1.08885 1.09274
583 1.08855 1.09242
584 1.08825 1.09211
585 1.08795 1.0918
586 1.08765 1.09149
587 1.08736 1.09119
588 1.08706 1.09088
589 1.08677 1.09058
590 1.08648 1.09027
591 1.08619 1.08997
592 1.0859 1.08967
593 1.08561 1.08938
594 1.08533 1.08908
595 1.08505 1.08878
596 1.08476 1.08849
597 1.08448 1.0882
598 1.0842 1.08791
599 1.08392 1.08762
600 1.08365 1.08733
601 1.08337 1.08705
602 1.0831 1.08676
603 1.08283 1.08648
604 1.08255 1.08619
605 1.08228 1.08591
606 1.08201 1.08563
607 1.08175 1.08536
608 1.08148 1.08508
609 1.08122 1.0848
610 1.08095 1.08453
611 1.08069 1.08426
612 1.08043 1.08398
613 1.08017 1.08371
614 1.07991 1.08345
615 1.07965 1.08318
616 1.0794 1.08291
617 1.07914 1.08265
618 1.07889 1.08238
619 1.07864 1.08212
620 1.07839 1.08186
621 1.07814 1.0816
622 1.07789 1.08134
623 1.07764 1.08108
624 1.07739 1.08083
625 1.07715 1.08057
626 1.0769 1.08032
627 1.07666 1.08006
628 1.07642 1.07981
629 1.07618 1.07956
630 1.07594 1.07931
631 1.0757 1.07906
632 1.07546 1.07882
633 1.07523 1.07857
634 1.07499 1.07833
635 1.07476 1.07808
636 1.07452 1.07784
637 1.07429 1.0776
638 1.07406 1.07736
639 1.07383 1.07712
640 1.0736 1.07688
641 1.07338 1.07665
642 1.07315 1.07641
643 1.07292 1.07618
644 1.0727 1.07594
645 1.07248 1.07571
646 1.07225 1.07548
647 1.07203 1.07525
648 1.07181 1.07502
649 1.07159 1.07479
650 1.07137 1.07456
651 1.07116 1.07434
652 1.07094 1.07411
653 1.07072 1.07389
654 1.07051 1.07366
655 1.0703 1.07344
656 1.07008 1.07322
657 1.06987 1.073
658 1.06966 1.07278
659 1.06945 1.07256
660 1.06924 1.07235
661 1.06904 1.07213
662 1.06883 1.07191
663 1.06862 1.0717
664 1.06842 1.07149
665 1.06821 1.07127
666 1.06801 1.07106
667 1.06781 1.07085
668 1.06761 1.07064
669 1.06741 1.07043
670 1.06721 1.07023
671 1.06701 1.07002
672 1.06681 1.06981
673 1.06661 1.06961
674 1.06642 1.0694
675 1.06622 1.0692
676 1.06603 1.069
677 1.06584 1.0688
678 1.06564 1.0686
679 1.06545 1.0684
680 1.06526 1.0682
681 1.06507 1.068
682 1.06488 1.0678
683 1.06469 1.06761
684 1.06451 1.06741
685 1.06432 1.06722
686 1.06413 1.06702
687 1.06395 1.06683
688 1.06376 1.06664
689 1.06358 1.06645
690 1.0634 1.06626
691 1.06321 1.06607
692 1.06303 1.06588
693 1.06285 1.06569
694 1.06267 1.0655
695 1.06249 1.06532
696 1.06232 1.06513
697 1.06214 1.06494
698 1.06196 1.06476
699 1.06179 1.06458
700 1.06161 1.06439
701 1.06144 1.06421
702 1.06126 1.06403
703 1.06109 1.06385
704 1.06092 1.06367
705 1.06075 1.06349
706 1.06057 1.06332
707 1.0604 1.06314
708 1.06024 1.06296
709 1.06007 1.06279
710 1.0599 1.06261
711 1.05973 1.06244
712 1.05956 1.06226
713 1.0594 1.06209
714 1.05923 1.06192
715 1.05907 1.06175
716 1.05891 1.06158
717 1.05874 1.06141
718 1.05858 1.06124
719 1.05842 1.06107
720 1.05826 1.0609
721 1.0581 1.06073
722 1.05794 1.06057
723 1.05778 1.0604
724 1.05762 1.06024
725 1.05746 1.06007
726 1.0573 1.05991
727 1.05715 1.05974
728 1.05699 1.05958
729 1.05684 1.05942
730 1.05668 1.05926
731 1.05653 1.0591
732 1.05637 1.05894
733 1.05622 1.05878
734 1.05607 1.05862
735 1.05592 1.05846
736 1.05577 1.05831
737 1.05562 1.05815
738 1.05547 1.05799
739 1.05532 1.05784
740 1.05517 1.05768
741 1.05502 1.05753
742 1.05488 1.05737
743 1.05473 1.05722
744 1.05458 1.05707
745 1.05444 1.05692
746 1.05429 1.05677
747 1.05415 1.05662
748 1.054 1.05647
749 1.05386 1.05632
750 1.05372 1.05617
751 1.05358 1.05602
752 1.05343 1.05587
753 1.05329 1.05572
754 1.05315 1.05558
755 1.05301 1.05543
756 1.05287 1.05529
757 1.05273 1.05514
758 1.0526 1.055
759 1.05246 1.05485
760 1.05232 1.05471
761 1.05219 1.05457
762 1.05205 1.05443
763 1.05191 1.05429
764 1.05178 1.05415
765 1.05164 1.05401
766 1.05151 1.05387
767 1.05138 1.05373
768 1.05124 1.05359
769 1.05111 1.05345
770 1.05098 1.05331
771 1.05085 1.05317
772 1.05072 1.05304
773 1.05059 1.0529
774 1.05046 1.05277
775 1.05033 1.05263
776 1.0502 1.0525
777 1.05007 1.05236
778 1.04994 1.05223
779 1.04981 1.0521
780 1.04969 1.05196
781 1.04956 1.05183
782 1.04944 1.0517
783 1.04931 1.05157
784 1.04918 1.05144
785 1.04906 1.05131
786 1.04894 1.05118
787 1.04881 1.05105
788 1.04869 1.05092
789 1.04857 1.0508
790 1.04844 1.05067
791 1.04832 1.05054
792 1.0482 1.05041
793 1.04808 1.05029
794 1.04796 1.05016
795 1.04784 1.05004
796 1.04772 1.04991
797 1.0476 1.04979
798 1.04748 1.04966
799 1.04737 1.04954
800 1.04725 1.04942
801 1.04713 1.0493
802 1.04701 1.04917
803 1.0469 1.04905
804 1.04678 1.04893
805 1.04667 1.04881
806 1.04655 1.04869
807 1.04644 1.04857
808 1.04632 1.04845
809 1.04621 1.04833
810 1.04609 1.04822
811 1.04598 1.0481
812 1.04587 1.04798
813 1.04576 1.04786
814 1.04564 1.04775
815 1.04553 1.04763
816 1.04542 1.04751
817 1.04531 1.0474
818 1.0452 1.04728
819 1.04509 1.04717
820 1.04498 1.04705
821 1.04487 1.04694
822 1.04477 1.04683
823 1.04466 1.04671
824 1.04455 1.0466
825 1.04444 1.04649
826 1.04433 1.04638
827 1.04423 1.04627
828 1.04412 1.04616
829 1.04402 1.04605
830 1.04391 1.04594
831 1.04381 1.04583
832 1.0437 1.04572
833 1.0436 1.04561
834 1.04349 1.0455
835 1.04339 1.04539
836 1.04329 1.04528
837 1.04318 1.04518
838 1.04308 1.04507
839 1.04298 1.04496
840 1.04288 1.04486
841 1.04277 1.04475
842 1.04267 1.04464
843 1.04257 1.04454
844 1.04247 1.04444
845 1.04237 1.04433
846 1.04227 1.04423
847 1.04217 1.04412
848 1.04207 1.04402
849 1.04198 1.04392
850 1.04188 1.04381
851 1.04178 1.04371
852 1.04168 1.04361
853 1.04159 1.04351
854 1.04149 1.04341
855 1.04139 1.04331
856 1.0413 1.04321
857 1.0412 1.04311
858 1.0411 1.04301
859 1.04101 1.04291
860 1.04091 1.04281
861 1.04082 1.04271
862 1.04073 1.04261
863 1.04063 1.04251
864 1.04054 1.04242
865 1.04044 1.04232
866 1.04035 1.04222
867 1.04026 1.04212
868 1.04017 1.04203
869 1.04008 1.04193
870 1.03998 1.04184
871 1.03989 1.04174
872 1.0398 1.04165
873 1.03971 1.04155
874 1.03962 1.04146
875 1.03953 1.04136
876 1.03944 1.04127
877 1.03935 1.04118
878 1.03926 1.04108
879 1.03917 1.04099
880 1.03908 1.0409
881 1.039 1.0408
882 1.03891 1.04071
883 1.03882 1.04062
884 1.03873 1.04053
885 1.03865 1.04044
886 1.03856 1.04035
887 1.03847 1.04026
888 1.03839 1.04017
889 1.0383 1.04008
890 1.03821 1.03999
891 1.03813 1.0399
892 1.03804 1.03981
893 1.03796 1.03972
894 1.03787 1.03963
895 1.03779 1.03955
896 1.03771 1.03946
897 1.03762 1.03937
898 1.03754 1.03928
899 1.03746 1.0392
900 1.03737 1.03911
901 1.03729 1.03902
902 1.03721 1.03894
903 1.03713 1.03885
904 1.03704 1.03877
905 1.03696 1.03868
906 1.03688 1.0386
907 1.0368 1.03851
908 1.03672 1.03843
909 1.03664 1.03834
910 1.03656 1.03826
911 1.03648 1.03818
912 1.0364 1.03809
913 1.03632 1.03801
914 1.03624 1.03793
915 1.03616 1.03785
916 1.03608 1.03776
917 1.03601 1.03768
918 1.03593 1.0376
919 1.03585 1.03752
920 1.03577 1.03744
921 1.0357 1.03736
922 1.03562 1.03728
923 1.03554 1.0372
924 1.03546 1.03712
925 1.03539 1.03704
926 1.03531 1.03696
927 1.03524 1.03688
928 1.03516 1.0368
929 1.03509 1.03672
930 1.03501 1.03664
931 1.03494 1.03656
932 1.03486 1.03649
933 1.03479 1.03641
934 1.03471 1.03633
935 1.03464 1.03625
936 1.03456 1.03618
937 1.03449 1.0361
938 1.03442 1.03602
939 1.03435 1.03595
940 1.03427 1.03587
941 1.0342 1.03579
942 1.03413 1.03572
943 1.03406 1.03564
944 1.03398 1.03557
945 1.03391 1.03549
946 1.03384 1.03542
947 1.03377 1.03535
948 1.0337 1.03527
949 1.03363 1.0352
950 1.03356 1.03512
951 1.03349 1.03505
952 1.03342 1.03498
953 1.03335 1.0349
954 1.03328 1.03483
955 1.03321 1.03476
956 1.03314 1.03469
957 1.03307 1.03461
958 1.033 1.03454
959 1.03293 1.03447
960 1.03286 1.0344
961 1.0328 1.03433
962 1.03273 1.03426
963 1.03266 1.03419
964 1.03259 1.03412
965 1.03253 1.03405
966 1.03246 1.03398
967 1.03239 1.03391
968 1.03233 1.03384
969 1.03226 1.03377
970 1.03219 1.0337
971 1.03213 1.03363
972 1.03206 1.03356
973 1.032 1.03349
974 1.03193 1.03342
975 1.03186 1.03335
976 1.0318 1.03329
977 1.03173 1.03322
978 1.03167 1.03315
979 1.03161 1.03308
980 1.03154 1.03302
981 1.03148 1.03295
982 1.03141 1.03288
983 1.03135 1.03282
984 1.03129 1.03275
985 1.03122 1.03268
986 1.03116 1.03262
987 1.0311 1.03255
988 1.03103 1.03249
989 1.03097 1.03242
990 1.03091 1.03236
991 1.03085 1.03229
992 1.03079 1.03223
993 1.03072 1.03216
994 1.03066 1.0321
995 1.0306 1.03203
996 1.03054 1.03197
997 1.03048 1.03191
998 1.03042 1.03184
999 1.03036 1.03178
1000 1.0303 1.03172
1001 1.03024 1.03165
1002 1.03018 1.03159
1003 1.03012 1.03153
1004 1.03006 1.03146
1005 1.03 1.0314
1006 1.02994 1.03134
1007 1.02988 1.03128
1008 1.02982 1.03122
1009 1.02976 1.03116
1010 1.0297 1.03109
