### FSI tabel with Julich B Potential Triplet (2-Gauss potential) #####
# Weight # krel [MeV] 
1 2.98254
2 2.98238
3 2.9821
4 2.98172
5 2.98122
6 2.98061
7 2.9799
8 2.97907
9 2.97813
10 2.97709
11 2.97593
12 2.97467
13 2.9733
14 2.97183
15 2.97024
16 2.96855
17 2.96675
18 2.96485
19 2.96285
20 2.96074
21 2.95852
22 2.95621
23 2.95379
24 2.95127
25 2.94865
26 2.94593
27 2.94312
28 2.9402
29 2.93719
30 2.93408
31 2.93088
32 2.92759
33 2.9242
34 2.92072
35 2.91715
36 2.91349
37 2.90975
38 2.90591
39 2.90199
40 2.89799
41 2.8939
42 2.88972
43 2.88547
44 2.88114
45 2.87673
46 2.87224
47 2.86767
48 2.86303
49 2.85832
50 2.85354
51 2.84868
52 2.84375
53 2.83876
54 2.8337
55 2.82857
56 2.82338
57 2.81812
58 2.81281
59 2.80743
60 2.802
61 2.7965
62 2.79096
63 2.78535
64 2.7797
65 2.77399
66 2.76823
67 2.76242
68 2.75657
69 2.75066
70 2.74472
71 2.73872
72 2.73269
73 2.72662
74 2.7205
75 2.71435
76 2.70816
77 2.70193
78 2.69567
79 2.68937
80 2.68305
81 2.67669
82 2.6703
83 2.66389
84 2.65745
85 2.65098
86 2.64449
87 2.63797
88 2.63143
89 2.62487
90 2.6183
91 2.6117
92 2.60508
93 2.59845
94 2.5918
95 2.58514
96 2.57847
97 2.57178
98 2.56508
99 2.55837
100 2.55165
101 2.54493
102 2.5382
103 2.53146
104 2.52471
105 2.51796
106 2.51121
107 2.50446
108 2.4977
109 2.49094
110 2.48418
111 2.47743
112 2.47067
113 2.46392
114 2.45717
115 2.45043
116 2.44369
117 2.43696
118 2.43023
119 2.42351
120 2.4168
121 2.41009
122 2.4034
123 2.39671
124 2.39004
125 2.38337
126 2.37672
127 2.37008
128 2.36346
129 2.35684
130 2.35024
131 2.34366
132 2.33709
133 2.33053
134 2.324
135 2.31747
136 2.31097
137 2.30448
138 2.29801
139 2.29156
140 2.28513
141 2.27871
142 2.27232
143 2.26595
144 2.25959
145 2.25326
146 2.24695
147 2.24066
148 2.23439
149 2.22814
150 2.22192
151 2.21571
152 2.20953
153 2.20338
154 2.19724
155 2.19113
156 2.18505
157 2.17899
158 2.17295
159 2.16694
160 2.16095
161 2.15498
162 2.14905
163 2.14313
164 2.13725
165 2.13138
166 2.12555
167 2.11974
168 2.11395
169 2.10819
170 2.10246
171 2.09676
172 2.09108
173 2.08542
174 2.0798
175 2.0742
176 2.06862
177 2.06308
178 2.05756
179 2.05207
180 2.0466
181 2.04117
182 2.03576
183 2.03037
184 2.02502
185 2.01969
186 2.01439
187 2.00911
188 2.00386
189 1.99864
190 1.99345
191 1.98829
192 1.98315
193 1.97804
194 1.97295
195 1.9679
196 1.96287
197 1.95787
198 1.95289
199 1.94795
200 1.94303
201 1.93813
202 1.93327
203 1.92843
204 1.92361
205 1.91883
206 1.91407
207 1.90934
208 1.90463
209 1.89995
210 1.8953
211 1.89067
212 1.88607
213 1.8815
214 1.87695
215 1.87243
216 1.86793
217 1.86346
218 1.85902
219 1.8546
220 1.85021
221 1.84585
222 1.8415
223 1.83719
224 1.8329
225 1.82863
226 1.82439
227 1.82018
228 1.81599
229 1.81182
230 1.80768
231 1.80357
232 1.79948
233 1.79541
234 1.79137
235 1.78735
236 1.78335
237 1.77938
238 1.77544
239 1.77151
240 1.76761
241 1.76374
242 1.75989
243 1.75606
244 1.75225
245 1.74847
246 1.74471
247 1.74097
248 1.73725
249 1.73356
250 1.72989
251 1.72625
252 1.72262
253 1.71902
254 1.71544
255 1.71188
256 1.70834
257 1.70482
258 1.70133
259 1.69785
260 1.6944
261 1.69097
262 1.68756
263 1.68417
264 1.6808
265 1.67746
266 1.67413
267 1.67082
268 1.66754
269 1.66427
270 1.66102
271 1.6578
272 1.65459
273 1.6514
274 1.64824
275 1.64509
276 1.64196
277 1.63885
278 1.63576
279 1.63269
280 1.62964
281 1.6266
282 1.62359
283 1.62059
284 1.61761
285 1.61465
286 1.61171
287 1.60878
288 1.60588
289 1.60299
290 1.60012
291 1.59727
292 1.59443
293 1.59161
294 1.58881
295 1.58603
296 1.58326
297 1.58051
298 1.57778
299 1.57506
300 1.57236
301 1.56968
302 1.56701
303 1.56436
304 1.56173
305 1.55911
306 1.55651
307 1.55392
308 1.55135
309 1.5488
310 1.54626
311 1.54373
312 1.54122
313 1.53873
314 1.53625
315 1.53379
316 1.53134
317 1.5289
318 1.52649
319 1.52408
320 1.52169
321 1.51932
322 1.51695
323 1.51461
324 1.51227
325 1.50996
326 1.50765
327 1.50536
328 1.50308
329 1.50082
330 1.49857
331 1.49633
332 1.49411
333 1.4919
334 1.4897
335 1.48752
336 1.48535
337 1.48319
338 1.48105
339 1.47891
340 1.47679
341 1.47469
342 1.47259
343 1.47051
344 1.46844
345 1.46639
346 1.46434
347 1.46231
348 1.46029
349 1.45828
350 1.45628
351 1.4543
352 1.45232
353 1.45036
354 1.44841
355 1.44647
356 1.44454
357 1.44263
358 1.44072
359 1.43883
360 1.43694
361 1.43507
362 1.43321
363 1.43136
364 1.42952
365 1.42769
366 1.42587
367 1.42406
368 1.42227
369 1.42048
370 1.4187
371 1.41694
372 1.41518
373 1.41344
374 1.4117
375 1.40997
376 1.40826
377 1.40655
378 1.40485
379 1.40317
380 1.40149
381 1.39982
382 1.39816
383 1.39652
384 1.39488
385 1.39325
386 1.39163
387 1.39002
388 1.38841
389 1.38682
390 1.38524
391 1.38366
392 1.38209
393 1.38054
394 1.37899
395 1.37745
396 1.37592
397 1.37439
398 1.37288
399 1.37137
400 1.36988
401 1.36839
402 1.36691
403 1.36543
404 1.36397
405 1.36251
406 1.36106
407 1.35962
408 1.35819
409 1.35677
410 1.35535
411 1.35394
412 1.35254
413 1.35115
414 1.34976
415 1.34839
416 1.34702
417 1.34565
418 1.3443
419 1.34295
420 1.34161
421 1.34028
422 1.33895
423 1.33763
424 1.33632
425 1.33501
426 1.33372
427 1.33243
428 1.33114
429 1.32987
430 1.3286
431 1.32733
432 1.32608
433 1.32483
434 1.32359
435 1.32235
436 1.32112
437 1.3199
438 1.31868
439 1.31747
440 1.31627
441 1.31507
442 1.31388
443 1.3127
444 1.31152
445 1.31035
446 1.30918
447 1.30802
448 1.30687
449 1.30572
450 1.30458
451 1.30345
452 1.30232
453 1.3012
454 1.30008
455 1.29897
456 1.29786
457 1.29676
458 1.29567
459 1.29458
460 1.2935
461 1.29242
462 1.29135
463 1.29028
464 1.28922
465 1.28817
466 1.28712
467 1.28607
468 1.28503
469 1.284
470 1.28297
471 1.28195
472 1.28093
473 1.27992
474 1.27891
475 1.27791
476 1.27691
477 1.27592
478 1.27493
479 1.27395
480 1.27297
481 1.272
482 1.27103
483 1.27007
484 1.26911
485 1.26816
486 1.26721
487 1.26627
488 1.26533
489 1.2644
490 1.26347
491 1.26254
492 1.26162
493 1.26071
494 1.2598
495 1.25889
496 1.25799
497 1.25709
498 1.2562
499 1.25531
500 1.25443
501 1.25355
502 1.25267
503 1.2518
504 1.25094
505 1.25007
506 1.24922
507 1.24836
508 1.24751
509 1.24667
510 1.24582
511 1.24499
512 1.24415
513 1.24332
514 1.2425
515 1.24168
516 1.24086
517 1.24005
518 1.23924
519 1.23843
520 1.23763
521 1.23683
522 1.23604
523 1.23525
524 1.23446
525 1.23368
526 1.2329
527 1.23212
528 1.23135
529 1.23059
530 1.22982
531 1.22906
532 1.2283
533 1.22755
534 1.2268
535 1.22605
536 1.22531
537 1.22457
538 1.22384
539 1.2231
540 1.22237
541 1.22165
542 1.22093
543 1.22021
544 1.21949
545 1.21878
546 1.21807
547 1.21737
548 1.21666
549 1.21597
550 1.21527
551 1.21458
552 1.21389
553 1.2132
554 1.21252
555 1.21184
556 1.21116
557 1.21049
558 1.20982
559 1.20915
560 1.20849
561 1.20783
562 1.20717
563 1.20651
564 1.20586
565 1.20521
566 1.20457
567 1.20392
568 1.20328
569 1.20264
570 1.20201
571 1.20138
572 1.20075
573 1.20012
574 1.1995
575 1.19888
576 1.19826
577 1.19765
578 1.19703
579 1.19642
580 1.19582
581 1.19521
582 1.19461
583 1.19401
584 1.19342
585 1.19282
586 1.19223
587 1.19164
588 1.19106
589 1.19048
590 1.1899
591 1.18932
592 1.18874
593 1.18817
594 1.1876
595 1.18703
596 1.18647
597 1.1859
598 1.18534
599 1.18478
600 1.18423
601 1.18368
602 1.18312
603 1.18258
604 1.18203
605 1.18149
606 1.18095
607 1.18041
608 1.17987
609 1.17934
610 1.1788
611 1.17827
612 1.17775
613 1.17722
614 1.1767
615 1.17618
616 1.17566
617 1.17514
618 1.17463
619 1.17412
620 1.17361
621 1.1731
622 1.17259
623 1.17209
624 1.17159
625 1.17109
626 1.17059
627 1.1701
628 1.16961
629 1.16912
630 1.16863
631 1.16814
632 1.16766
633 1.16717
634 1.16669
635 1.16622
636 1.16574
637 1.16526
638 1.16479
639 1.16432
640 1.16385
641 1.16339
642 1.16292
643 1.16246
644 1.162
645 1.16154
646 1.16108
647 1.16063
648 1.16017
649 1.15972
650 1.15927
651 1.15882
652 1.15838
653 1.15793
654 1.15749
655 1.15705
656 1.15661
657 1.15618
658 1.15574
659 1.15531
660 1.15487
661 1.15444
662 1.15402
663 1.15359
664 1.15317
665 1.15274
666 1.15232
667 1.1519
668 1.15148
669 1.15107
670 1.15065
671 1.15024
672 1.14983
673 1.14942
674 1.14901
675 1.1486
676 1.1482
677 1.1478
678 1.14739
679 1.14699
680 1.1466
681 1.1462
682 1.1458
683 1.14541
684 1.14502
685 1.14463
686 1.14424
687 1.14385
688 1.14346
689 1.14308
690 1.1427
691 1.14232
692 1.14194
693 1.14156
694 1.14118
695 1.1408
696 1.14043
697 1.14006
698 1.13969
699 1.13932
700 1.13895
701 1.13858
702 1.13821
703 1.13785
704 1.13749
705 1.13713
706 1.13677
707 1.13641
708 1.13605
709 1.13569
710 1.13534
711 1.13499
712 1.13464
713 1.13428
714 1.13394
715 1.13359
716 1.13324
717 1.1329
718 1.13255
719 1.13221
720 1.13187
721 1.13153
722 1.13119
723 1.13085
724 1.13052
725 1.13018
726 1.12985
727 1.12951
728 1.12918
729 1.12885
730 1.12852
731 1.1282
732 1.12787
733 1.12755
734 1.12722
735 1.1269
736 1.12658
737 1.12626
738 1.12594
739 1.12562
740 1.1253
741 1.12499
742 1.12467
743 1.12436
744 1.12405
745 1.12374
746 1.12343
747 1.12312
748 1.12281
749 1.12251
750 1.1222
751 1.1219
752 1.12159
753 1.12129
754 1.12099
755 1.12069
756 1.12039
757 1.12009
758 1.1198
759 1.1195
760 1.11921
761 1.11892
762 1.11862
763 1.11833
764 1.11804
765 1.11775
766 1.11746
767 1.11718
768 1.11689
769 1.11661
770 1.11632
771 1.11604
772 1.11576
773 1.11548
774 1.1152
775 1.11492
776 1.11464
777 1.11436
778 1.11409
779 1.11381
780 1.11354
781 1.11327
782 1.11299
783 1.11272
784 1.11245
785 1.11218
786 1.11191
787 1.11165
788 1.11138
789 1.11112
790 1.11085
791 1.11059
792 1.11032
793 1.11006
794 1.1098
795 1.10954
796 1.10928
797 1.10902
798 1.10877
799 1.10851
800 1.10826
801 1.108
802 1.10775
803 1.10749
804 1.10724
805 1.10699
806 1.10674
807 1.10649
808 1.10624
809 1.106
810 1.10575
811 1.1055
812 1.10526
813 1.10501
814 1.10477
815 1.10453
816 1.10429
817 1.10404
818 1.1038
819 1.10356
820 1.10333
821 1.10309
822 1.10285
823 1.10262
824 1.10238
825 1.10215
826 1.10191
827 1.10168
828 1.10145
829 1.10121
830 1.10098
831 1.10075
832 1.10053
833 1.1003
834 1.10007
835 1.09984
836 1.09962
837 1.09939
838 1.09917
839 1.09894
840 1.09872
841 1.0985
842 1.09828
843 1.09806
844 1.09784
845 1.09762
846 1.0974
847 1.09718
848 1.09696
849 1.09675
850 1.09653
851 1.09631
852 1.0961
853 1.09589
854 1.09567
855 1.09546
856 1.09525
857 1.09504
858 1.09483
859 1.09462
860 1.09441
861 1.0942
862 1.09399
863 1.09379
864 1.09358
865 1.09338
866 1.09317
867 1.09297
868 1.09276
869 1.09256
870 1.09236
871 1.09216
872 1.09196
873 1.09176
874 1.09156
875 1.09136
876 1.09116
877 1.09096
878 1.09076
879 1.09057
880 1.09037
881 1.09018
882 1.08998
883 1.08979
884 1.08959
885 1.0894
886 1.08921
887 1.08902
888 1.08883
889 1.08864
890 1.08845
891 1.08826
892 1.08807
893 1.08788
894 1.0877
895 1.08751
896 1.08732
897 1.08714
898 1.08695
899 1.08677
900 1.08658
901 1.0864
902 1.08622
903 1.08604
904 1.08585
905 1.08567
906 1.08549
907 1.08531
908 1.08513
909 1.08495
910 1.08478
911 1.0846
912 1.08442
913 1.08425
914 1.08407
915 1.08389
916 1.08372
917 1.08354
918 1.08337
919 1.0832
920 1.08302
921 1.08285
922 1.08268
923 1.08251
924 1.08234
925 1.08217
926 1.082
927 1.08183
928 1.08166
929 1.08149
930 1.08133
931 1.08116
932 1.08099
933 1.08083
934 1.08066
935 1.0805
936 1.08033
937 1.08017
938 1.08
939 1.07984
940 1.07968
941 1.07952
942 1.07935
943 1.07919
944 1.07903
945 1.07887
946 1.07871
947 1.07855
948 1.0784
949 1.07824
950 1.07808
951 1.07792
952 1.07777
953 1.07761
954 1.07745
955 1.0773
956 1.07714
957 1.07699
958 1.07683
959 1.07668
960 1.07653
961 1.07637
962 1.07622
963 1.07607
964 1.07592
965 1.07577
966 1.07562
967 1.07547
968 1.07532
969 1.07517
970 1.07502
971 1.07487
972 1.07472
973 1.07458
974 1.07443
975 1.07428
976 1.07414
977 1.07399
978 1.07385
979 1.0737
980 1.07356
981 1.07341
982 1.07327
983 1.07313
984 1.07298
985 1.07284
986 1.0727
987 1.07256
988 1.07242
989 1.07228
990 1.07214
991 1.072
992 1.07186
993 1.07172
994 1.07158
995 1.07144
996 1.0713
997 1.07116
998 1.07103
999 1.07089
1000 1.07075
1001 1.07062
1002 1.07048
1003 1.07035
1004 1.07021
1005 1.07008
1006 1.06994
1007 1.06981
1008 1.06968
1009 1.06954
1010 1.06941
1011 1.06928
1012 1.06915
1013 1.06902
1014 1.06889
1015 1.06875
1016 1.06862
1017 1.06849
1018 1.06836
1019 1.06824
1020 1.06811
1021 1.06798
1022 1.06785
1023 1.06772
1024 1.0676
1025 1.06747
1026 1.06734
1027 1.06721
1028 1.06709
1029 1.06696
1030 1.06684
1031 1.06671
1032 1.06659
1033 1.06646
1034 1.06634
1035 1.06622
1036 1.06609
1037 1.06597
1038 1.06585
1039 1.06573
1040 1.0656
1041 1.06548
1042 1.06536
1043 1.06524
1044 1.06512
1045 1.065
1046 1.06488
1047 1.06476
1048 1.06464
1049 1.06452
1050 1.0644
1051 1.06428
1052 1.06417
1053 1.06405
1054 1.06393
1055 1.06381
1056 1.0637
1057 1.06358
1058 1.06347
1059 1.06335
1060 1.06323
1061 1.06312
1062 1.063
1063 1.06289
1064 1.06278
1065 1.06266
1066 1.06255
1067 1.06243
1068 1.06232
1069 1.06221
1070 1.0621
1071 1.06198
1072 1.06187
1073 1.06176
1074 1.06165
1075 1.06154
1076 1.06143
1077 1.06132
1078 1.06121
1079 1.0611
1080 1.06099
1081 1.06088
1082 1.06077
1083 1.06066
1084 1.06055
1085 1.06045
1086 1.06034
1087 1.06023
1088 1.06012
1089 1.06002
1090 1.05991
1091 1.05981
1092 1.0597
1093 1.05959
1094 1.05949
1095 1.05938
1096 1.05928
1097 1.05917
1098 1.05907
1099 1.05897
1100 1.05886
1101 1.05876
1102 1.05865
1103 1.05855
1104 1.05845
1105 1.05835
1106 1.05824
1107 1.05814
1108 1.05804
1109 1.05794
1110 1.05784
1111 1.05774
1112 1.05764
1113 1.05754
1114 1.05744
1115 1.05734
1116 1.05724
1117 1.05714
1118 1.05704
1119 1.05694
1120 1.05684
1121 1.05674
1122 1.05664
1123 1.05655
1124 1.05645
1125 1.05635
1126 1.05626
1127 1.05616
1128 1.05606
1129 1.05597
1130 1.05587
1131 1.05577
1132 1.05568
1133 1.05558
1134 1.05549
1135 1.05539
1136 1.0553
1137 1.0552
1138 1.05511
1139 1.05502
1140 1.05492
1141 1.05483
1142 1.05474
1143 1.05464
1144 1.05455
1145 1.05446
1146 1.05437
1147 1.05427
1148 1.05418
1149 1.05409
1150 1.054
1151 1.05391
1152 1.05382
1153 1.05373
1154 1.05364
1155 1.05355
1156 1.05346
1157 1.05337
1158 1.05328
1159 1.05319
1160 1.0531
1161 1.05301
1162 1.05292
1163 1.05283
1164 1.05274
1165 1.05266
1166 1.05257
1167 1.05248
1168 1.05239
1169 1.05231
1170 1.05222
1171 1.05213
1172 1.05205
1173 1.05196
1174 1.05187
1175 1.05179
1176 1.0517
1177 1.05162
1178 1.05153
1179 1.05145
1180 1.05136
1181 1.05128
1182 1.05119
1183 1.05111
1184 1.05103
1185 1.05094
1186 1.05086
1187 1.05078
1188 1.05069
1189 1.05061
1190 1.05053
1191 1.05044
1192 1.05036
1193 1.05028
1194 1.0502
1195 1.05012
1196 1.05003
1197 1.04995
1198 1.04987
1199 1.04979
1200 1.04971
1201 1.04963
1202 1.04955
1203 1.04947
1204 1.04939
1205 1.04931
1206 1.04923
1207 1.04915
1208 1.04907
1209 1.04899
1210 1.04891
1211 1.04883
1212 1.04876
1213 1.04868
1214 1.0486
1215 1.04852
1216 1.04844
1217 1.04837
1218 1.04829
1219 1.04821
1220 1.04814
1221 1.04806
1222 1.04798
1223 1.04791
1224 1.04783
1225 1.04775
1226 1.04768
1227 1.0476
1228 1.04753
1229 1.04745
1230 1.04738
1231 1.0473
1232 1.04723
1233 1.04715
1234 1.04708
1235 1.047
1236 1.04693
1237 1.04685
1238 1.04678
1239 1.04671
1240 1.04663
1241 1.04656
1242 1.04649
1243 1.04641
1244 1.04634
1245 1.04627
1246 1.0462
1247 1.04612
1248 1.04605
1249 1.04598
1250 1.04591
1251 1.04584
1252 1.04577
1253 1.04569
1254 1.04562
1255 1.04555
1256 1.04548
1257 1.04541
1258 1.04534
1259 1.04527
1260 1.0452
1261 1.04513
1262 1.04506
1263 1.04499
1264 1.04492
1265 1.04485
1266 1.04478
1267 1.04471
1268 1.04465
1269 1.04458
1270 1.04451
1271 1.04444
1272 1.04437
1273 1.0443
1274 1.04424
1275 1.04417
1276 1.0441
1277 1.04403
1278 1.04397
1279 1.0439
1280 1.04383
1281 1.04377
1282 1.0437
1283 1.04363
1284 1.04357
1285 1.0435
1286 1.04343
1287 1.04337
1288 1.0433
1289 1.04324
1290 1.04317
1291 1.04311
1292 1.04304
1293 1.04298
1294 1.04291
1295 1.04285
1296 1.04278
1297 1.04272
1298 1.04265
1299 1.04259
1300 1.04252
1301 1.04246
1302 1.0424
1303 1.04233
1304 1.04227
1305 1.04221
1306 1.04214
1307 1.04208
1308 1.04202
1309 1.04195
1310 1.04189
1311 1.04183
1312 1.04177
1313 1.04171
1314 1.04164
1315 1.04158
1316 1.04152
1317 1.04146
1318 1.0414
1319 1.04133
1320 1.04127
1321 1.04121
1322 1.04115
1323 1.04109
1324 1.04103
1325 1.04097
1326 1.04091
1327 1.04085
1328 1.04079
1329 1.04073
1330 1.04067
1331 1.04061
1332 1.04055
1333 1.04049
1334 1.04043
1335 1.04037
1336 1.04031
1337 1.04025
1338 1.04019
1339 1.04014
1340 1.04008
1341 1.04002
1342 1.03996
1343 1.0399
1344 1.03984
1345 1.03979
1346 1.03973
1347 1.03967
1348 1.03961
1349 1.03956
1350 1.0395
1351 1.03944
1352 1.03938
1353 1.03933
1354 1.03927
1355 1.03921
1356 1.03916
1357 1.0391
1358 1.03904
1359 1.03899
1360 1.03893
1361 1.03888
1362 1.03882
1363 1.03876
1364 1.03871
1365 1.03865
1366 1.0386
1367 1.03854
1368 1.03849
1369 1.03843
1370 1.03838
1371 1.03832
1372 1.03827
1373 1.03821
1374 1.03816
1375 1.0381
1376 1.03805
1377 1.038
1378 1.03794
1379 1.03789
1380 1.03783
1381 1.03778
1382 1.03773
1383 1.03767
1384 1.03762
1385 1.03757
1386 1.03751
1387 1.03746
1388 1.03741
1389 1.03736
1390 1.0373
1391 1.03725
1392 1.0372
1393 1.03715
1394 1.03709
1395 1.03704
1396 1.03699
1397 1.03694
1398 1.03689
1399 1.03683
1400 1.03678
1401 1.03673
1402 1.03668
1403 1.03663
1404 1.03658
1405 1.03653
1406 1.03647
1407 1.03642
1408 1.03637
1409 1.03632
1410 1.03627
1411 1.03622
1412 1.03617
1413 1.03612
1414 1.03607
1415 1.03602
1416 1.03597
1417 1.03592
1418 1.03587
1419 1.03582
1420 1.03577
1421 1.03572
1422 1.03567
1423 1.03563
1424 1.03558
1425 1.03553
1426 1.03548
1427 1.03543
1428 1.03538
1429 1.03533
1430 1.03528
1431 1.03524
1432 1.03519
1433 1.03514
1434 1.03509
1435 1.03504
1436 1.035
1437 1.03495
1438 1.0349
1439 1.03485
1440 1.0348
1441 1.03476
1442 1.03471
1443 1.03466
1444 1.03462
1445 1.03457
1446 1.03452
1447 1.03447
1448 1.03443
1449 1.03438
1450 1.03433
1451 1.03429
1452 1.03424
1453 1.0342
1454 1.03415
1455 1.0341
1456 1.03406
1457 1.03401
1458 1.03397
1459 1.03392
1460 1.03387
1461 1.03383
1462 1.03378
1463 1.03374
1464 1.03369
1465 1.03365
1466 1.0336
1467 1.03356
1468 1.03351
1469 1.03347
1470 1.03342
1471 1.03338
1472 1.03333
1473 1.03329
1474 1.03325
1475 1.0332
1476 1.03316
1477 1.03311
1478 1.03307
1479 1.03303
1480 1.03298
1481 1.03294
1482 1.03289
1483 1.03285
1484 1.03281
1485 1.03276
1486 1.03272
1487 1.03268
1488 1.03263
1489 1.03259
1490 1.03255
1491 1.03251
1492 1.03246
1493 1.03242
1494 1.03238
1495 1.03233
1496 1.03229
1497 1.03225
1498 1.03221
1499 1.03217
1500 1.03212
1501 1.03208
1502 1.03204
1503 1.032
1504 1.03196
1505 1.03191
1506 1.03187
1507 1.03183
1508 1.03179
1509 1.03175
1510 1.03171
1511 1.03166
1512 1.03162
1513 1.03158
1514 1.03154
1515 1.0315
1516 1.03146
1517 1.03142
1518 1.03138
1519 1.03134
1520 1.0313
1521 1.03126
1522 1.03122
1523 1.03118
1524 1.03114
1525 1.0311
1526 1.03106
1527 1.03102
1528 1.03098
1529 1.03094
1530 1.0309
1531 1.03086
1532 1.03082
1533 1.03078
1534 1.03074
1535 1.0307
1536 1.03066
1537 1.03062
1538 1.03058
1539 1.03054
1540 1.0305
1541 1.03046
1542 1.03043
1543 1.03039
1544 1.03035
1545 1.03031
1546 1.03027
1547 1.03023
1548 1.03019
1549 1.03016
1550 1.03012
1551 1.03008
1552 1.03004
1553 1.03
1554 1.02996
1555 1.02993
1556 1.02989
1557 1.02985
1558 1.02981
1559 1.02978
1560 1.02974
1561 1.0297
1562 1.02966
1563 1.02963
1564 1.02959
1565 1.02955
1566 1.02951
1567 1.02948
1568 1.02944
1569 1.0294
1570 1.02937
1571 1.02933
1572 1.02929
1573 1.02926
1574 1.02922
1575 1.02918
1576 1.02915
1577 1.02911
1578 1.02907
1579 1.02904
1580 1.029
1581 1.02897
1582 1.02893
1583 1.02889
1584 1.02886
1585 1.02882
1586 1.02879
1587 1.02875
1588 1.02871
1589 1.02868
1590 1.02864
1591 1.02861
1592 1.02857
1593 1.02854
1594 1.0285
1595 1.02847
1596 1.02843
1597 1.0284
1598 1.02836
1599 1.02833
1600 1.02829
1601 1.02826
1602 1.02822
1603 1.02819
1604 1.02815
1605 1.02812
1606 1.02808
1607 1.02805
1608 1.02802
1609 1.02798
1610 1.02795
1611 1.02791
1612 1.02788
1613 1.02784
1614 1.02781
1615 1.02778
1616 1.02774
1617 1.02771
1618 1.02768
1619 1.02764
1620 1.02761
1621 1.02757
1622 1.02754
1623 1.02751
1624 1.02747
1625 1.02744
1626 1.02741
1627 1.02737
1628 1.02734
1629 1.02731
1630 1.02728
