### FSI tabel with Verma Potential (2-Gauss potential) #####
# Weight # krel [MeV] 
1 2.71561
2 2.71548
3 2.71525
4 2.71493
5 2.71451
6 2.71401
7 2.71341
8 2.71273
9 2.71195
10 2.71108
11 2.71013
12 2.70908
13 2.70794
14 2.70671
15 2.7054
16 2.70399
17 2.7025
18 2.70092
19 2.69925
20 2.6975
21 2.69566
22 2.69373
23 2.69172
24 2.68963
25 2.68745
26 2.68519
27 2.68285
28 2.68042
29 2.67792
30 2.67533
31 2.67267
32 2.66993
33 2.6671
34 2.66421
35 2.66123
36 2.65818
37 2.65506
38 2.65187
39 2.6486
40 2.64526
41 2.64185
42 2.63836
43 2.63482
44 2.6312
45 2.62752
46 2.62377
47 2.61995
48 2.61608
49 2.61214
50 2.60814
51 2.60407
52 2.59995
53 2.59577
54 2.59154
55 2.58725
56 2.5829
57 2.5785
58 2.57404
59 2.56954
60 2.56498
61 2.56038
62 2.55572
63 2.55102
64 2.54627
65 2.54148
66 2.53664
67 2.53176
68 2.52684
69 2.52188
70 2.51687
71 2.51183
72 2.50676
73 2.50164
74 2.49649
75 2.49131
76 2.48609
77 2.48084
78 2.47556
79 2.47025
80 2.46491
81 2.45955
82 2.45416
83 2.44874
84 2.44329
85 2.43783
86 2.43234
87 2.42683
88 2.42129
89 2.41574
90 2.41017
91 2.40458
92 2.39898
93 2.39335
94 2.38772
95 2.38207
96 2.3764
97 2.37073
98 2.36504
99 2.35934
100 2.35363
101 2.34792
102 2.34219
103 2.33646
104 2.33072
105 2.32498
106 2.31923
107 2.31347
108 2.30772
109 2.30196
110 2.2962
111 2.29043
112 2.28467
113 2.27891
114 2.27315
115 2.26739
116 2.26163
117 2.25587
118 2.25012
119 2.24437
120 2.23863
121 2.23289
122 2.22716
123 2.22144
124 2.21572
125 2.21001
126 2.20431
127 2.19862
128 2.19293
129 2.18726
130 2.18159
131 2.17594
132 2.1703
133 2.16467
134 2.15905
135 2.15344
136 2.14785
137 2.14227
138 2.1367
139 2.13115
140 2.12561
141 2.12009
142 2.11458
143 2.10909
144 2.10362
145 2.09816
146 2.09271
147 2.08729
148 2.08188
149 2.07649
150 2.07111
151 2.06575
152 2.06042
153 2.0551
154 2.0498
155 2.04451
156 2.03925
157 2.03401
158 2.02878
159 2.02358
160 2.0184
161 2.01323
162 2.00809
163 2.00297
164 1.99787
165 1.99279
166 1.98773
167 1.98269
168 1.97767
169 1.97267
170 1.9677
171 1.96275
172 1.95782
173 1.95291
174 1.94802
175 1.94316
176 1.93832
177 1.9335
178 1.9287
179 1.92392
180 1.91917
181 1.91444
182 1.90973
183 1.90505
184 1.90039
185 1.89575
186 1.89113
187 1.88654
188 1.88197
189 1.87742
190 1.87289
191 1.86839
192 1.86391
193 1.85946
194 1.85502
195 1.85061
196 1.84623
197 1.84186
198 1.83752
199 1.8332
200 1.8289
201 1.82463
202 1.82038
203 1.81615
204 1.81195
205 1.80777
206 1.80361
207 1.79947
208 1.79536
209 1.79127
210 1.7872
211 1.78315
212 1.77913
213 1.77513
214 1.77115
215 1.76719
216 1.76326
217 1.75935
218 1.75546
219 1.75159
220 1.74774
221 1.74392
222 1.74012
223 1.73634
224 1.73258
225 1.72884
226 1.72513
227 1.72143
228 1.71776
229 1.71411
230 1.71048
231 1.70687
232 1.70328
233 1.69971
234 1.69617
235 1.69264
236 1.68914
237 1.68565
238 1.68219
239 1.67875
240 1.67532
241 1.67192
242 1.66854
243 1.66518
244 1.66184
245 1.65851
246 1.65521
247 1.65193
248 1.64866
249 1.64542
250 1.6422
251 1.63899
252 1.63581
253 1.63264
254 1.62949
255 1.62636
256 1.62325
257 1.62016
258 1.61709
259 1.61404
260 1.611
261 1.60798
262 1.60499
263 1.60201
264 1.59904
265 1.5961
266 1.59317
267 1.59026
268 1.58737
269 1.5845
270 1.58164
271 1.5788
272 1.57598
273 1.57317
274 1.57039
275 1.56762
276 1.56486
277 1.56212
278 1.5594
279 1.5567
280 1.55401
281 1.55134
282 1.54869
283 1.54605
284 1.54342
285 1.54082
286 1.53823
287 1.53565
288 1.53309
289 1.53055
290 1.52802
291 1.52551
292 1.52301
293 1.52053
294 1.51806
295 1.51561
296 1.51317
297 1.51075
298 1.50834
299 1.50594
300 1.50356
301 1.5012
302 1.49885
303 1.49651
304 1.49419
305 1.49188
306 1.48959
307 1.48731
308 1.48504
309 1.48279
310 1.48055
311 1.47833
312 1.47612
313 1.47392
314 1.47173
315 1.46956
316 1.4674
317 1.46526
318 1.46312
319 1.461
320 1.4589
321 1.4568
322 1.45472
323 1.45265
324 1.45059
325 1.44855
326 1.44652
327 1.4445
328 1.44249
329 1.44049
330 1.43851
331 1.43653
332 1.43457
333 1.43262
334 1.43069
335 1.42876
336 1.42685
337 1.42494
338 1.42305
339 1.42117
340 1.4193
341 1.41744
342 1.4156
343 1.41376
344 1.41194
345 1.41012
346 1.40832
347 1.40652
348 1.40474
349 1.40297
350 1.40121
351 1.39946
352 1.39772
353 1.39598
354 1.39426
355 1.39255
356 1.39085
357 1.38916
358 1.38748
359 1.38581
360 1.38415
361 1.3825
362 1.38086
363 1.37922
364 1.3776
365 1.37599
366 1.37438
367 1.37279
368 1.3712
369 1.36963
370 1.36806
371 1.3665
372 1.36495
373 1.36341
374 1.36188
375 1.36036
376 1.35884
377 1.35734
378 1.35584
379 1.35435
380 1.35288
381 1.3514
382 1.34994
383 1.34849
384 1.34704
385 1.3456
386 1.34417
387 1.34275
388 1.34134
389 1.33993
390 1.33854
391 1.33715
392 1.33576
393 1.33439
394 1.33302
395 1.33167
396 1.33032
397 1.32897
398 1.32764
399 1.32631
400 1.32499
401 1.32367
402 1.32237
403 1.32107
404 1.31978
405 1.31849
406 1.31722
407 1.31595
408 1.31468
409 1.31343
410 1.31218
411 1.31093
412 1.3097
413 1.30847
414 1.30725
415 1.30603
416 1.30483
417 1.30362
418 1.30243
419 1.30124
420 1.30006
421 1.29888
422 1.29771
423 1.29655
424 1.29539
425 1.29424
426 1.2931
427 1.29196
428 1.29083
429 1.2897
430 1.28858
431 1.28747
432 1.28636
433 1.28526
434 1.28417
435 1.28308
436 1.28199
437 1.28091
438 1.27984
439 1.27878
440 1.27771
441 1.27666
442 1.27561
443 1.27457
444 1.27353
445 1.27249
446 1.27147
447 1.27044
448 1.26943
449 1.26842
450 1.26741
451 1.26641
452 1.26542
453 1.26442
454 1.26344
455 1.26246
456 1.26149
457 1.26052
458 1.25955
459 1.25859
460 1.25764
461 1.25669
462 1.25574
463 1.2548
464 1.25387
465 1.25294
466 1.25201
467 1.25109
468 1.25018
469 1.24927
470 1.24836
471 1.24746
472 1.24656
473 1.24567
474 1.24478
475 1.2439
476 1.24302
477 1.24215
478 1.24128
479 1.24041
480 1.23955
481 1.23869
482 1.23784
483 1.23699
484 1.23615
485 1.23531
486 1.23448
487 1.23364
488 1.23282
489 1.232
490 1.23118
491 1.23036
492 1.22955
493 1.22875
494 1.22794
495 1.22715
496 1.22635
497 1.22556
498 1.22477
499 1.22399
500 1.22321
501 1.22244
502 1.22167
503 1.2209
504 1.22014
505 1.21938
506 1.21862
507 1.21787
508 1.21712
509 1.21638
510 1.21563
511 1.2149
512 1.21416
513 1.21343
514 1.21271
515 1.21198
516 1.21126
517 1.21055
518 1.20983
519 1.20912
520 1.20842
521 1.20772
522 1.20702
523 1.20632
524 1.20563
525 1.20494
526 1.20425
527 1.20357
528 1.20289
529 1.20222
530 1.20154
531 1.20087
532 1.20021
533 1.19954
534 1.19888
535 1.19823
536 1.19757
537 1.19692
538 1.19627
539 1.19563
540 1.19499
541 1.19435
542 1.19371
543 1.19308
544 1.19245
545 1.19183
546 1.1912
547 1.19058
548 1.18996
549 1.18935
550 1.18874
551 1.18813
552 1.18752
553 1.18692
554 1.18631
555 1.18572
556 1.18512
557 1.18453
558 1.18394
559 1.18335
560 1.18277
561 1.18218
562 1.18161
563 1.18103
564 1.18046
565 1.17988
566 1.17932
567 1.17875
568 1.17819
569 1.17762
570 1.17707
571 1.17651
572 1.17596
573 1.17541
574 1.17486
575 1.17431
576 1.17377
577 1.17323
578 1.17269
579 1.17215
580 1.17162
581 1.17109
582 1.17056
583 1.17003
584 1.16951
585 1.16899
586 1.16847
587 1.16795
588 1.16743
589 1.16692
590 1.16641
591 1.1659
592 1.1654
593 1.16489
594 1.16439
595 1.16389
596 1.16339
597 1.1629
598 1.16241
599 1.16192
600 1.16143
601 1.16094
602 1.16046
603 1.15997
604 1.15949
605 1.15902
606 1.15854
607 1.15807
608 1.15759
609 1.15712
610 1.15666
611 1.15619
612 1.15573
613 1.15527
614 1.15481
615 1.15435
616 1.15389
617 1.15344
618 1.15299
619 1.15254
620 1.15209
621 1.15164
622 1.1512
623 1.15076
624 1.15031
625 1.14988
626 1.14944
627 1.149
628 1.14857
629 1.14814
630 1.14771
631 1.14728
632 1.14686
633 1.14643
634 1.14601
635 1.14559
636 1.14517
637 1.14475
638 1.14434
639 1.14393
640 1.14351
641 1.1431
642 1.1427
643 1.14229
644 1.14188
645 1.14148
646 1.14108
647 1.14068
648 1.14028
649 1.13988
650 1.13949
651 1.13909
652 1.1387
653 1.13831
654 1.13792
655 1.13754
656 1.13715
657 1.13677
658 1.13639
659 1.136
660 1.13563
661 1.13525
662 1.13487
663 1.1345
664 1.13412
665 1.13375
666 1.13338
667 1.13301
668 1.13265
669 1.13228
670 1.13192
671 1.13155
672 1.13119
673 1.13083
674 1.13047
675 1.13012
676 1.12976
677 1.12941
678 1.12905
679 1.1287
680 1.12835
681 1.128
682 1.12766
683 1.12731
684 1.12697
685 1.12662
686 1.12628
687 1.12594
688 1.1256
689 1.12526
690 1.12493
691 1.12459
692 1.12426
693 1.12393
694 1.1236
695 1.12327
696 1.12294
697 1.12261
698 1.12228
699 1.12196
700 1.12164
701 1.12131
702 1.12099
703 1.12067
704 1.12035
705 1.12004
706 1.11972
707 1.11941
708 1.11909
709 1.11878
710 1.11847
711 1.11816
712 1.11785
713 1.11754
714 1.11723
715 1.11693
716 1.11663
717 1.11632
718 1.11602
719 1.11572
720 1.11542
721 1.11512
722 1.11482
723 1.11453
724 1.11423
725 1.11394
726 1.11365
727 1.11335
728 1.11306
729 1.11277
730 1.11249
731 1.1122
732 1.11191
733 1.11163
734 1.11134
735 1.11106
736 1.11078
737 1.1105
738 1.11022
739 1.10994
740 1.10966
741 1.10938
742 1.10911
743 1.10883
744 1.10856
745 1.10828
746 1.10801
747 1.10774
748 1.10747
749 1.1072
750 1.10694
751 1.10667
752 1.1064
753 1.10614
754 1.10587
755 1.10561
756 1.10535
757 1.10509
758 1.10483
759 1.10457
760 1.10431
761 1.10405
762 1.1038
763 1.10354
764 1.10329
765 1.10303
766 1.10278
767 1.10253
768 1.10228
769 1.10203
770 1.10178
771 1.10153
772 1.10128
773 1.10104
774 1.10079
775 1.10055
776 1.1003
777 1.10006
778 1.09982
779 1.09958
780 1.09933
781 1.0991
782 1.09886
783 1.09862
784 1.09838
785 1.09815
786 1.09791
787 1.09768
788 1.09744
789 1.09721
790 1.09698
791 1.09675
792 1.09652
793 1.09629
794 1.09606
795 1.09583
796 1.0956
797 1.09538
798 1.09515
799 1.09492
800 1.0947
801 1.09448
802 1.09425
803 1.09403
804 1.09381
805 1.09359
806 1.09337
807 1.09315
808 1.09294
809 1.09272
810 1.0925
811 1.09229
812 1.09207
813 1.09186
814 1.09164
815 1.09143
816 1.09122
817 1.09101
818 1.0908
819 1.09059
820 1.09038
821 1.09017
822 1.08996
823 1.08975
824 1.08955
825 1.08934
826 1.08914
827 1.08893
828 1.08873
829 1.08853
830 1.08832
831 1.08812
832 1.08792
833 1.08772
834 1.08752
835 1.08732
836 1.08713
837 1.08693
838 1.08673
839 1.08653
840 1.08634
841 1.08614
842 1.08595
843 1.08576
844 1.08556
845 1.08537
846 1.08518
847 1.08499
848 1.0848
849 1.08461
850 1.08442
851 1.08423
852 1.08404
853 1.08386
854 1.08367
855 1.08348
856 1.0833
857 1.08311
858 1.08293
859 1.08274
860 1.08256
861 1.08238
862 1.0822
863 1.08202
864 1.08184
865 1.08165
866 1.08148
867 1.0813
868 1.08112
869 1.08094
870 1.08076
871 1.08059
872 1.08041
873 1.08023
874 1.08006
875 1.07989
876 1.07971
877 1.07954
878 1.07937
879 1.07919
880 1.07902
881 1.07885
882 1.07868
883 1.07851
884 1.07834
885 1.07817
886 1.078
887 1.07784
888 1.07767
889 1.0775
890 1.07734
891 1.07717
892 1.07701
893 1.07684
894 1.07668
895 1.07651
896 1.07635
897 1.07619
898 1.07602
899 1.07586
900 1.0757
901 1.07554
902 1.07538
903 1.07522
904 1.07506
905 1.0749
906 1.07475
907 1.07459
908 1.07443
909 1.07428
910 1.07412
911 1.07396
912 1.07381
913 1.07365
914 1.0735
915 1.07335
916 1.07319
917 1.07304
918 1.07289
919 1.07274
920 1.07258
921 1.07243
922 1.07228
923 1.07213
924 1.07198
925 1.07183
926 1.07169
927 1.07154
928 1.07139
929 1.07124
930 1.0711
931 1.07095
932 1.0708
933 1.07066
934 1.07051
935 1.07037
936 1.07022
937 1.07008
938 1.06994
939 1.06979
940 1.06965
941 1.06951
942 1.06937
943 1.06923
944 1.06909
945 1.06895
946 1.06881
947 1.06867
948 1.06853
949 1.06839
950 1.06825
951 1.06811
952 1.06798
953 1.06784
954 1.0677
955 1.06757
956 1.06743
957 1.0673
958 1.06716
959 1.06703
960 1.06689
961 1.06676
962 1.06663
963 1.06649
964 1.06636
965 1.06623
966 1.0661
967 1.06596
968 1.06583
969 1.0657
970 1.06557
971 1.06544
972 1.06531
973 1.06518
974 1.06506
975 1.06493
976 1.0648
977 1.06467
978 1.06454
979 1.06442
980 1.06429
981 1.06417
982 1.06404
983 1.06391
984 1.06379
985 1.06366
986 1.06354
987 1.06342
988 1.06329
989 1.06317
990 1.06305
991 1.06292
992 1.0628
993 1.06268
994 1.06256
995 1.06244
996 1.06232
997 1.0622
998 1.06208
999 1.06196
1000 1.06184
1001 1.06172
1002 1.0616
1003 1.06148
1004 1.06136
1005 1.06125
1006 1.06113
1007 1.06101
1008 1.06089
1009 1.06078
1010 1.06066
1011 1.06055
1012 1.06043
1013 1.06032
1014 1.0602
1015 1.06009
1016 1.05997
1017 1.05986
1018 1.05975
1019 1.05963
1020 1.05952
1021 1.05941
1022 1.05929
1023 1.05918
1024 1.05907
1025 1.05896
1026 1.05885
1027 1.05874
1028 1.05863
1029 1.05852
1030 1.05841
1031 1.0583
1032 1.05819
1033 1.05808
1034 1.05797
1035 1.05786
1036 1.05776
1037 1.05765
1038 1.05754
1039 1.05743
1040 1.05733
1041 1.05722
1042 1.05712
1043 1.05701
1044 1.0569
1045 1.0568
1046 1.05669
1047 1.05659
1048 1.05648
1049 1.05638
1050 1.05628
1051 1.05617
1052 1.05607
1053 1.05597
1054 1.05586
1055 1.05576
1056 1.05566
1057 1.05556
1058 1.05546
1059 1.05536
1060 1.05525
1061 1.05515
1062 1.05505
1063 1.05495
1064 1.05485
1065 1.05475
1066 1.05465
1067 1.05455
1068 1.05446
1069 1.05436
1070 1.05426
1071 1.05416
1072 1.05406
1073 1.05397
1074 1.05387
1075 1.05377
1076 1.05367
1077 1.05358
1078 1.05348
1079 1.05339
1080 1.05329
1081 1.05319
1082 1.0531
1083 1.053
1084 1.05291
1085 1.05281
1086 1.05272
1087 1.05263
1088 1.05253
1089 1.05244
1090 1.05235
1091 1.05225
1092 1.05216
1093 1.05207
1094 1.05198
1095 1.05188
1096 1.05179
1097 1.0517
1098 1.05161
1099 1.05152
1100 1.05143
1101 1.05134
1102 1.05125
1103 1.05116
1104 1.05107
1105 1.05098
1106 1.05089
1107 1.0508
1108 1.05071
1109 1.05062
1110 1.05053
1111 1.05044
1112 1.05036
1113 1.05027
1114 1.05018
1115 1.05009
1116 1.05001
1117 1.04992
1118 1.04983
1119 1.04975
1120 1.04966
1121 1.04957
1122 1.04949
1123 1.0494
1124 1.04932
1125 1.04923
1126 1.04915
1127 1.04906
1128 1.04898
1129 1.04889
1130 1.04881
1131 1.04873
1132 1.04864
1133 1.04856
1134 1.04848
1135 1.04839
1136 1.04831
1137 1.04823
1138 1.04814
1139 1.04806
1140 1.04798
1141 1.0479
1142 1.04782
1143 1.04774
1144 1.04765
1145 1.04757
1146 1.04749
1147 1.04741
1148 1.04733
1149 1.04725
1150 1.04717
1151 1.04709
1152 1.04701
1153 1.04693
1154 1.04685
1155 1.04678
1156 1.0467
1157 1.04662
1158 1.04654
1159 1.04646
1160 1.04638
1161 1.04631
1162 1.04623
1163 1.04615
1164 1.04607
1165 1.046
1166 1.04592
1167 1.04584
1168 1.04577
1169 1.04569
1170 1.04562
1171 1.04554
1172 1.04546
1173 1.04539
1174 1.04531
1175 1.04524
1176 1.04516
1177 1.04509
1178 1.04501
1179 1.04494
1180 1.04487
1181 1.04479
1182 1.04472
1183 1.04464
1184 1.04457
1185 1.0445
1186 1.04443
1187 1.04435
1188 1.04428
1189 1.04421
1190 1.04413
1191 1.04406
1192 1.04399
1193 1.04392
1194 1.04385
1195 1.04378
1196 1.0437
1197 1.04363
1198 1.04356
1199 1.04349
1200 1.04342
1201 1.04335
1202 1.04328
1203 1.04321
1204 1.04314
1205 1.04307
1206 1.043
1207 1.04293
1208 1.04286
1209 1.04279
1210 1.04272
1211 1.04266
1212 1.04259
1213 1.04252
1214 1.04245
1215 1.04238
1216 1.04231
1217 1.04225
1218 1.04218
1219 1.04211
1220 1.04204
1221 1.04198
1222 1.04191
1223 1.04184
1224 1.04178
1225 1.04171
1226 1.04164
1227 1.04158
1228 1.04151
1229 1.04144
1230 1.04138
1231 1.04131
1232 1.04125
1233 1.04118
1234 1.04112
1235 1.04105
1236 1.04099
1237 1.04092
1238 1.04086
1239 1.04079
1240 1.04073
1241 1.04067
1242 1.0406
1243 1.04054
1244 1.04047
1245 1.04041
1246 1.04035
1247 1.04028
1248 1.04022
1249 1.04016
1250 1.0401
1251 1.04003
1252 1.03997
1253 1.03991
1254 1.03985
1255 1.03978
1256 1.03972
1257 1.03966
1258 1.0396
1259 1.03954
1260 1.03948
1261 1.03942
1262 1.03935
1263 1.03929
1264 1.03923
1265 1.03917
1266 1.03911
1267 1.03905
1268 1.03899
1269 1.03893
1270 1.03887
1271 1.03881
1272 1.03875
1273 1.03869
1274 1.03863
1275 1.03857
1276 1.03852
1277 1.03846
1278 1.0384
1279 1.03834
1280 1.03828
1281 1.03822
1282 1.03816
1283 1.03811
1284 1.03805
1285 1.03799
1286 1.03793
1287 1.03787
1288 1.03782
1289 1.03776
1290 1.0377
1291 1.03764
1292 1.03759
1293 1.03753
1294 1.03747
1295 1.03742
1296 1.03736
1297 1.0373
1298 1.03725
1299 1.03719
1300 1.03714
1301 1.03708
1302 1.03703
1303 1.03697
1304 1.03691
1305 1.03686
1306 1.0368
1307 1.03675
1308 1.03669
1309 1.03664
1310 1.03658
1311 1.03653
1312 1.03647
1313 1.03642
1314 1.03637
1315 1.03631
1316 1.03626
1317 1.0362
1318 1.03615
1319 1.0361
1320 1.03604
1321 1.03599
1322 1.03594
1323 1.03588
1324 1.03583
1325 1.03578
1326 1.03572
1327 1.03567
1328 1.03562
1329 1.03557
1330 1.03551
1331 1.03546
1332 1.03541
1333 1.03536
1334 1.03531
1335 1.03525
1336 1.0352
1337 1.03515
1338 1.0351
1339 1.03505
1340 1.035
1341 1.03495
1342 1.03489
1343 1.03484
1344 1.03479
1345 1.03474
1346 1.03469
1347 1.03464
1348 1.03459
1349 1.03454
1350 1.03449
1351 1.03444
1352 1.03439
1353 1.03434
1354 1.03429
1355 1.03424
1356 1.03419
1357 1.03414
1358 1.03409
1359 1.03404
1360 1.034
1361 1.03395
1362 1.0339
1363 1.03385
1364 1.0338
1365 1.03375
1366 1.0337
1367 1.03366
1368 1.03361
1369 1.03356
1370 1.03351
1371 1.03346
1372 1.03342
1373 1.03337
1374 1.03332
1375 1.03327
1376 1.03322
1377 1.03318
1378 1.03313
1379 1.03308
1380 1.03304
1381 1.03299
1382 1.03294
1383 1.0329
1384 1.03285
1385 1.0328
1386 1.03276
1387 1.03271
1388 1.03266
1389 1.03262
1390 1.03257
1391 1.03253
1392 1.03248
1393 1.03243
1394 1.03239
1395 1.03234
1396 1.0323
1397 1.03225
1398 1.03221
1399 1.03216
1400 1.03212
1401 1.03207
1402 1.03203
1403 1.03198
1404 1.03194
1405 1.03189
1406 1.03185
1407 1.0318
1408 1.03176
1409 1.03172
1410 1.03167
1411 1.03163
1412 1.03158
1413 1.03154
1414 1.0315
1415 1.03145
1416 1.03141
1417 1.03136
1418 1.03132
1419 1.03128
1420 1.03123
1421 1.03119
1422 1.03115
1423 1.03111
1424 1.03106
1425 1.03102
1426 1.03098
1427 1.03093
1428 1.03089
1429 1.03085
1430 1.03081
1431 1.03076
1432 1.03072
1433 1.03068
1434 1.03064
1435 1.0306
1436 1.03055
1437 1.03051
1438 1.03047
1439 1.03043
1440 1.03039
1441 1.03035
1442 1.03031
1443 1.03026
1444 1.03022
1445 1.03018
1446 1.03014
1447 1.0301
1448 1.03006
1449 1.03002
1450 1.02998
1451 1.02994
1452 1.0299
1453 1.02986
1454 1.02982
1455 1.02978
1456 1.02974
1457 1.0297
1458 1.02966
1459 1.02962
1460 1.02958
1461 1.02954
1462 1.0295
1463 1.02946
1464 1.02942
1465 1.02938
1466 1.02934
1467 1.0293
1468 1.02926
1469 1.02922
1470 1.02918
1471 1.02914
1472 1.0291
1473 1.02906
1474 1.02903
1475 1.02899
1476 1.02895
1477 1.02891
1478 1.02887
1479 1.02883
1480 1.0288
1481 1.02876
1482 1.02872
1483 1.02868
1484 1.02864
1485 1.0286
1486 1.02857
1487 1.02853
1488 1.02849
1489 1.02845
1490 1.02842
1491 1.02838
1492 1.02834
1493 1.0283
1494 1.02827
1495 1.02823
1496 1.02819
1497 1.02816
1498 1.02812
1499 1.02808
1500 1.02804
1501 1.02801
1502 1.02797
1503 1.02793
1504 1.0279
1505 1.02786
1506 1.02783
1507 1.02779
1508 1.02775
1509 1.02772
1510 1.02768
1511 1.02764
1512 1.02761
1513 1.02757
1514 1.02754
1515 1.0275
1516 1.02747
1517 1.02743
1518 1.02739
1519 1.02736
1520 1.02732
1521 1.02729
1522 1.02725
1523 1.02722
1524 1.02718
1525 1.02715
1526 1.02711
1527 1.02708
1528 1.02704
1529 1.02701
1530 1.02697
1531 1.02694
1532 1.0269
1533 1.02687
1534 1.02683
1535 1.0268
1536 1.02677
1537 1.02673
1538 1.0267
1539 1.02666
1540 1.02663
1541 1.0266
1542 1.02656
1543 1.02653
1544 1.02649
1545 1.02646
1546 1.02643
1547 1.02639
1548 1.02636
1549 1.02633
1550 1.02629
1551 1.02626
1552 1.02623
1553 1.02619
1554 1.02616
1555 1.02613
1556 1.02609
1557 1.02606
1558 1.02603
1559 1.02599
1560 1.02596
1561 1.02593
1562 1.0259
1563 1.02586
1564 1.02583
1565 1.0258
1566 1.02577
1567 1.02573
1568 1.0257
1569 1.02567
1570 1.02564
1571 1.0256
1572 1.02557
1573 1.02554
1574 1.02551
1575 1.02548
1576 1.02544
1577 1.02541
1578 1.02538
1579 1.02535
1580 1.02532
1581 1.02529
1582 1.02525
1583 1.02522
1584 1.02519
1585 1.02516
1586 1.02513
1587 1.0251
1588 1.02507
1589 1.02504
1590 1.025
1591 1.02497
1592 1.02494
1593 1.02491
1594 1.02488
1595 1.02485
1596 1.02482
1597 1.02479
1598 1.02476
1599 1.02473
1600 1.0247
1601 1.02467
1602 1.02464
1603 1.02461
1604 1.02458
1605 1.02455
1606 1.02452
1607 1.02449
1608 1.02446
1609 1.02443
1610 1.0244
1611 1.02437
1612 1.02434
1613 1.02431
1614 1.02428
1615 1.02425
1616 1.02422
1617 1.02419
1618 1.02416
1619 1.02413
1620 1.0241
1621 1.02407
1622 1.02404
1623 1.02401
1624 1.02398
1625 1.02395
1626 1.02393
1627 1.0239
1628 1.02387
1629 1.02384
1630 1.02381
