### FSI tabel with 3He Potential (2-Gauss potential) #####
# Weight # krel [MeV] 
1 3.03883
2 3.03865
3 3.03834
4 3.03792
5 3.03737
6 3.03669
7 3.0359
8 3.03498
9 3.03395
10 3.03279
11 3.03151
12 3.03012
13 3.0286
14 3.02696
15 3.02521
16 3.02334
17 3.02135
18 3.01925
19 3.01703
20 3.01469
21 3.01224
22 3.00968
23 3.00701
24 3.00422
25 3.00133
26 2.99832
27 2.99521
28 2.99199
29 2.98866
30 2.98523
31 2.9817
32 2.97806
33 2.97432
34 2.97048
35 2.96654
36 2.96251
37 2.95837
38 2.95415
39 2.94982
40 2.94541
41 2.9409
42 2.93631
43 2.93163
44 2.92686
45 2.922
46 2.91706
47 2.91204
48 2.90694
49 2.90176
50 2.8965
51 2.89116
52 2.88575
53 2.88027
54 2.87471
55 2.86908
56 2.86339
57 2.85763
58 2.8518
59 2.84591
60 2.83995
61 2.83394
62 2.82787
63 2.82174
64 2.81555
65 2.80931
66 2.80301
67 2.79666
68 2.79027
69 2.78382
70 2.77733
71 2.77079
72 2.76421
73 2.75759
74 2.75093
75 2.74422
76 2.73748
77 2.73071
78 2.72389
79 2.71705
80 2.71017
81 2.70326
82 2.69632
83 2.68936
84 2.68237
85 2.67535
86 2.66831
87 2.66125
88 2.65416
89 2.64706
90 2.63994
91 2.6328
92 2.62564
93 2.61847
94 2.61129
95 2.60409
96 2.59689
97 2.58967
98 2.58244
99 2.57521
100 2.56797
101 2.56072
102 2.55347
103 2.54622
104 2.53896
105 2.53171
106 2.52445
107 2.51719
108 2.50994
109 2.50268
110 2.49544
111 2.48819
112 2.48095
113 2.47372
114 2.46649
115 2.45927
116 2.45206
117 2.44486
118 2.43767
119 2.43049
120 2.42332
121 2.41617
122 2.40902
123 2.40189
124 2.39478
125 2.38768
126 2.3806
127 2.37353
128 2.36648
129 2.35945
130 2.35243
131 2.34544
132 2.33846
133 2.3315
134 2.32457
135 2.31765
136 2.31076
137 2.30388
138 2.29703
139 2.2902
140 2.2834
141 2.27662
142 2.26986
143 2.26313
144 2.25642
145 2.24973
146 2.24307
147 2.23644
148 2.22983
149 2.22325
150 2.21669
151 2.21017
152 2.20366
153 2.19719
154 2.19074
155 2.18432
156 2.17793
157 2.17157
158 2.16524
159 2.15893
160 2.15265
161 2.1464
162 2.14018
163 2.13399
164 2.12783
165 2.1217
166 2.1156
167 2.10953
168 2.10349
169 2.09748
170 2.09149
171 2.08554
172 2.07962
173 2.07373
174 2.06787
175 2.06204
176 2.05624
177 2.05047
178 2.04473
179 2.03902
180 2.03334
181 2.0277
182 2.02208
183 2.01649
184 2.01094
185 2.00541
186 1.99992
187 1.99446
188 1.98902
189 1.98362
190 1.97825
191 1.97291
192 1.9676
193 1.96232
194 1.95706
195 1.95184
196 1.94665
197 1.9415
198 1.93637
199 1.93127
200 1.9262
201 1.92116
202 1.91615
203 1.91117
204 1.90622
205 1.9013
206 1.8964
207 1.89154
208 1.88671
209 1.88191
210 1.87713
211 1.87239
212 1.86767
213 1.86298
214 1.85832
215 1.85369
216 1.84909
217 1.84452
218 1.83997
219 1.83545
220 1.83096
221 1.8265
222 1.82207
223 1.81766
224 1.81328
225 1.80893
226 1.80461
227 1.80031
228 1.79604
229 1.7918
230 1.78758
231 1.78339
232 1.77923
233 1.77509
234 1.77098
235 1.7669
236 1.76284
237 1.7588
238 1.7548
239 1.75081
240 1.74686
241 1.74293
242 1.73902
243 1.73514
244 1.73128
245 1.72745
246 1.72364
247 1.71986
248 1.7161
249 1.71237
250 1.70866
251 1.70497
252 1.70131
253 1.69767
254 1.69405
255 1.69046
256 1.68689
257 1.68334
258 1.67982
259 1.67631
260 1.67284
261 1.66938
262 1.66594
263 1.66253
264 1.65914
265 1.65577
266 1.65243
267 1.6491
268 1.6458
269 1.64252
270 1.63926
271 1.63602
272 1.6328
273 1.6296
274 1.62642
275 1.62326
276 1.62013
277 1.61701
278 1.61391
279 1.61083
280 1.60778
281 1.60474
282 1.60172
283 1.59872
284 1.59575
285 1.59279
286 1.58984
287 1.58692
288 1.58402
289 1.58113
290 1.57827
291 1.57542
292 1.57259
293 1.56978
294 1.56699
295 1.56421
296 1.56145
297 1.55871
298 1.55599
299 1.55328
300 1.5506
301 1.54793
302 1.54527
303 1.54263
304 1.54001
305 1.53741
306 1.53482
307 1.53225
308 1.5297
309 1.52716
310 1.52464
311 1.52213
312 1.51964
313 1.51717
314 1.51471
315 1.51227
316 1.50984
317 1.50743
318 1.50503
319 1.50265
320 1.50028
321 1.49793
322 1.49559
323 1.49327
324 1.49096
325 1.48867
326 1.48639
327 1.48412
328 1.48187
329 1.47964
330 1.47741
331 1.4752
332 1.47301
333 1.47083
334 1.46866
335 1.4665
336 1.46436
337 1.46224
338 1.46012
339 1.45802
340 1.45593
341 1.45385
342 1.45179
343 1.44974
344 1.4477
345 1.44568
346 1.44367
347 1.44167
348 1.43968
349 1.4377
350 1.43574
351 1.43379
352 1.43185
353 1.42992
354 1.428
355 1.4261
356 1.4242
357 1.42232
358 1.42045
359 1.41859
360 1.41675
361 1.41491
362 1.41308
363 1.41127
364 1.40947
365 1.40767
366 1.40589
367 1.40412
368 1.40236
369 1.40061
370 1.39887
371 1.39714
372 1.39542
373 1.39371
374 1.39202
375 1.39033
376 1.38865
377 1.38698
378 1.38532
379 1.38367
380 1.38204
381 1.38041
382 1.37879
383 1.37718
384 1.37558
385 1.37399
386 1.3724
387 1.37083
388 1.36927
389 1.36771
390 1.36617
391 1.36463
392 1.36311
393 1.36159
394 1.36008
395 1.35858
396 1.35709
397 1.3556
398 1.35413
399 1.35266
400 1.3512
401 1.34975
402 1.34831
403 1.34688
404 1.34546
405 1.34404
406 1.34263
407 1.34123
408 1.33984
409 1.33845
410 1.33708
411 1.33571
412 1.33435
413 1.333
414 1.33165
415 1.33031
416 1.32898
417 1.32766
418 1.32634
419 1.32504
420 1.32374
421 1.32244
422 1.32116
423 1.31988
424 1.31861
425 1.31734
426 1.31608
427 1.31483
428 1.31359
429 1.31235
430 1.31112
431 1.3099
432 1.30869
433 1.30748
434 1.30627
435 1.30508
436 1.30389
437 1.30271
438 1.30153
439 1.30036
440 1.2992
441 1.29804
442 1.29689
443 1.29574
444 1.2946
445 1.29347
446 1.29235
447 1.29123
448 1.29011
449 1.289
450 1.2879
451 1.28681
452 1.28572
453 1.28463
454 1.28355
455 1.28248
456 1.28141
457 1.28035
458 1.2793
459 1.27825
460 1.2772
461 1.27617
462 1.27513
463 1.2741
464 1.27308
465 1.27207
466 1.27105
467 1.27005
468 1.26905
469 1.26805
470 1.26706
471 1.26608
472 1.2651
473 1.26412
474 1.26315
475 1.26219
476 1.26123
477 1.26027
478 1.25933
479 1.25838
480 1.25744
481 1.25651
482 1.25558
483 1.25465
484 1.25373
485 1.25282
486 1.2519
487 1.251
488 1.2501
489 1.2492
490 1.24831
491 1.24742
492 1.24654
493 1.24566
494 1.24478
495 1.24391
496 1.24305
497 1.24219
498 1.24133
499 1.24048
500 1.23963
501 1.23879
502 1.23795
503 1.23711
504 1.23628
505 1.23545
506 1.23463
507 1.23381
508 1.233
509 1.23219
510 1.23138
511 1.23058
512 1.22978
513 1.22899
514 1.22819
515 1.22741
516 1.22663
517 1.22585
518 1.22507
519 1.2243
520 1.22353
521 1.22277
522 1.22201
523 1.22125
524 1.2205
525 1.21975
526 1.21901
527 1.21827
528 1.21753
529 1.21679
530 1.21606
531 1.21534
532 1.21461
533 1.21389
534 1.21318
535 1.21246
536 1.21175
537 1.21105
538 1.21034
539 1.20964
540 1.20895
541 1.20825
542 1.20756
543 1.20688
544 1.2062
545 1.20552
546 1.20484
547 1.20417
548 1.2035
549 1.20283
550 1.20216
551 1.2015
552 1.20085
553 1.20019
554 1.19954
555 1.19889
556 1.19825
557 1.1976
558 1.19697
559 1.19633
560 1.1957
561 1.19507
562 1.19444
563 1.19381
564 1.19319
565 1.19257
566 1.19196
567 1.19134
568 1.19073
569 1.19013
570 1.18952
571 1.18892
572 1.18832
573 1.18773
574 1.18713
575 1.18654
576 1.18595
577 1.18537
578 1.18478
579 1.1842
580 1.18363
581 1.18305
582 1.18248
583 1.18191
584 1.18134
585 1.18078
586 1.18022
587 1.17966
588 1.1791
589 1.17855
590 1.17799
591 1.17744
592 1.1769
593 1.17635
594 1.17581
595 1.17527
596 1.17473
597 1.1742
598 1.17367
599 1.17314
600 1.17261
601 1.17208
602 1.17156
603 1.17104
604 1.17052
605 1.17
606 1.16949
607 1.16898
608 1.16847
609 1.16796
610 1.16746
611 1.16695
612 1.16645
613 1.16595
614 1.16546
615 1.16496
616 1.16447
617 1.16398
618 1.16349
619 1.16301
620 1.16253
621 1.16204
622 1.16156
623 1.16109
624 1.16061
625 1.16014
626 1.15967
627 1.1592
628 1.15873
629 1.15827
630 1.1578
631 1.15734
632 1.15688
633 1.15643
634 1.15597
635 1.15552
636 1.15506
637 1.15462
638 1.15417
639 1.15372
640 1.15328
641 1.15284
642 1.1524
643 1.15196
644 1.15152
645 1.15109
646 1.15065
647 1.15022
648 1.14979
649 1.14937
650 1.14894
651 1.14852
652 1.14809
653 1.14767
654 1.14725
655 1.14684
656 1.14642
657 1.14601
658 1.1456
659 1.14519
660 1.14478
661 1.14437
662 1.14397
663 1.14356
664 1.14316
665 1.14276
666 1.14236
667 1.14197
668 1.14157
669 1.14118
670 1.14079
671 1.14039
672 1.14001
673 1.13962
674 1.13923
675 1.13885
676 1.13847
677 1.13809
678 1.13771
679 1.13733
680 1.13695
681 1.13658
682 1.1362
683 1.13583
684 1.13546
685 1.13509
686 1.13472
687 1.13436
688 1.13399
689 1.13363
690 1.13327
691 1.13291
692 1.13255
693 1.13219
694 1.13184
695 1.13148
696 1.13113
697 1.13078
698 1.13042
699 1.13008
700 1.12973
701 1.12938
702 1.12904
703 1.12869
704 1.12835
705 1.12801
706 1.12767
707 1.12733
708 1.12699
709 1.12666
710 1.12632
711 1.12599
712 1.12566
713 1.12533
714 1.125
715 1.12467
716 1.12434
717 1.12402
718 1.12369
719 1.12337
720 1.12305
721 1.12273
722 1.12241
723 1.12209
724 1.12177
725 1.12146
726 1.12114
727 1.12083
728 1.12052
729 1.12021
730 1.1199
731 1.11959
732 1.11928
733 1.11898
734 1.11867
735 1.11837
736 1.11806
737 1.11776
738 1.11746
739 1.11716
740 1.11686
741 1.11657
742 1.11627
743 1.11598
744 1.11568
745 1.11539
746 1.1151
747 1.11481
748 1.11452
749 1.11423
750 1.11394
751 1.11366
752 1.11337
753 1.11309
754 1.1128
755 1.11252
756 1.11224
757 1.11196
758 1.11168
759 1.1114
760 1.11113
761 1.11085
762 1.11057
763 1.1103
764 1.11003
765 1.10976
766 1.10948
767 1.10921
768 1.10895
769 1.10868
770 1.10841
771 1.10814
772 1.10788
773 1.10761
774 1.10735
775 1.10709
776 1.10683
777 1.10657
778 1.10631
779 1.10605
780 1.10579
781 1.10553
782 1.10528
783 1.10502
784 1.10477
785 1.10452
786 1.10426
787 1.10401
788 1.10376
789 1.10351
790 1.10327
791 1.10302
792 1.10277
793 1.10252
794 1.10228
795 1.10204
796 1.10179
797 1.10155
798 1.10131
799 1.10107
800 1.10083
801 1.10059
802 1.10035
803 1.10011
804 1.09987
805 1.09964
806 1.0994
807 1.09917
808 1.09894
809 1.0987
810 1.09847
811 1.09824
812 1.09801
813 1.09778
814 1.09755
815 1.09732
816 1.0971
817 1.09687
818 1.09665
819 1.09642
820 1.0962
821 1.09597
822 1.09575
823 1.09553
824 1.09531
825 1.09509
826 1.09487
827 1.09465
828 1.09443
829 1.09422
830 1.094
831 1.09378
832 1.09357
833 1.09335
834 1.09314
835 1.09293
836 1.09272
837 1.0925
838 1.09229
839 1.09208
840 1.09188
841 1.09167
842 1.09146
843 1.09125
844 1.09105
845 1.09084
846 1.09063
847 1.09043
848 1.09023
849 1.09002
850 1.08982
851 1.08962
852 1.08942
853 1.08922
854 1.08902
855 1.08882
856 1.08862
857 1.08842
858 1.08823
859 1.08803
860 1.08783
861 1.08764
862 1.08744
863 1.08725
864 1.08706
865 1.08686
866 1.08667
867 1.08648
868 1.08629
869 1.0861
870 1.08591
871 1.08572
872 1.08553
873 1.08535
874 1.08516
875 1.08497
876 1.08479
877 1.0846
878 1.08442
879 1.08423
880 1.08405
881 1.08387
882 1.08368
883 1.0835
884 1.08332
885 1.08314
886 1.08296
887 1.08278
888 1.0826
889 1.08242
890 1.08225
891 1.08207
892 1.08189
893 1.08172
894 1.08154
895 1.08137
896 1.08119
897 1.08102
898 1.08085
899 1.08067
900 1.0805
901 1.08033
902 1.08016
903 1.07999
904 1.07982
905 1.07965
906 1.07948
907 1.07931
908 1.07914
909 1.07898
910 1.07881
911 1.07864
912 1.07848
913 1.07831
914 1.07815
915 1.07798
916 1.07782
917 1.07766
918 1.07749
919 1.07733
920 1.07717
921 1.07701
922 1.07685
923 1.07669
924 1.07653
925 1.07637
926 1.07621
927 1.07605
928 1.07589
929 1.07574
930 1.07558
931 1.07542
932 1.07527
933 1.07511
934 1.07496
935 1.0748
936 1.07465
937 1.0745
938 1.07434
939 1.07419
940 1.07404
941 1.07389
942 1.07374
943 1.07359
944 1.07344
945 1.07329
946 1.07314
947 1.07299
948 1.07284
949 1.07269
950 1.07254
951 1.0724
952 1.07225
953 1.0721
954 1.07196
955 1.07181
956 1.07167
957 1.07152
958 1.07138
959 1.07124
960 1.07109
961 1.07095
962 1.07081
963 1.07067
964 1.07052
965 1.07038
966 1.07024
967 1.0701
968 1.06996
969 1.06982
970 1.06968
971 1.06955
972 1.06941
973 1.06927
974 1.06913
975 1.069
976 1.06886
977 1.06872
978 1.06859
979 1.06845
980 1.06832
981 1.06818
982 1.06805
983 1.06791
984 1.06778
985 1.06765
986 1.06752
987 1.06738
988 1.06725
989 1.06712
990 1.06699
991 1.06686
992 1.06673
993 1.0666
994 1.06647
995 1.06634
996 1.06621
997 1.06608
998 1.06595
999 1.06583
1000 1.0657
1001 1.06557
1002 1.06544
1003 1.06532
1004 1.06519
1005 1.06507
1006 1.06494
1007 1.06482
1008 1.06469
1009 1.06457
1010 1.06444
1011 1.06432
1012 1.0642
1013 1.06408
1014 1.06395
1015 1.06383
1016 1.06371
1017 1.06359
1018 1.06347
1019 1.06335
1020 1.06323
1021 1.06311
1022 1.06299
1023 1.06287
1024 1.06275
1025 1.06263
1026 1.06251
1027 1.06239
1028 1.06228
1029 1.06216
1030 1.06204
1031 1.06193
1032 1.06181
1033 1.06169
1034 1.06158
1035 1.06146
1036 1.06135
1037 1.06123
1038 1.06112
1039 1.061
1040 1.06089
1041 1.06078
1042 1.06066
1043 1.06055
1044 1.06044
1045 1.06033
1046 1.06021
1047 1.0601
1048 1.05999
1049 1.05988
1050 1.05977
1051 1.05966
1052 1.05955
1053 1.05944
1054 1.05933
1055 1.05922
1056 1.05911
1057 1.059
1058 1.0589
1059 1.05879
1060 1.05868
1061 1.05857
1062 1.05847
1063 1.05836
1064 1.05825
1065 1.05815
1066 1.05804
1067 1.05793
1068 1.05783
1069 1.05772
1070 1.05762
1071 1.05751
1072 1.05741
1073 1.05731
1074 1.0572
1075 1.0571
1076 1.057
1077 1.05689
1078 1.05679
1079 1.05669
1080 1.05659
1081 1.05648
1082 1.05638
1083 1.05628
1084 1.05618
1085 1.05608
1086 1.05598
1087 1.05588
1088 1.05578
1089 1.05568
1090 1.05558
1091 1.05548
1092 1.05538
1093 1.05528
1094 1.05519
1095 1.05509
1096 1.05499
1097 1.05489
1098 1.0548
1099 1.0547
1100 1.0546
1101 1.05451
1102 1.05441
1103 1.05431
1104 1.05422
1105 1.05412
1106 1.05403
1107 1.05393
1108 1.05384
1109 1.05374
1110 1.05365
1111 1.05355
1112 1.05346
1113 1.05337
1114 1.05327
1115 1.05318
1116 1.05309
1117 1.053
1118 1.0529
1119 1.05281
1120 1.05272
1121 1.05263
1122 1.05254
1123 1.05244
1124 1.05235
1125 1.05226
1126 1.05217
1127 1.05208
1128 1.05199
1129 1.0519
1130 1.05181
1131 1.05172
1132 1.05164
1133 1.05155
1134 1.05146
1135 1.05137
1136 1.05128
1137 1.05119
1138 1.05111
1139 1.05102
1140 1.05093
1141 1.05084
1142 1.05076
1143 1.05067
1144 1.05058
1145 1.0505
1146 1.05041
1147 1.05033
1148 1.05024
1149 1.05016
1150 1.05007
1151 1.04999
1152 1.0499
1153 1.04982
1154 1.04973
1155 1.04965
1156 1.04957
1157 1.04948
1158 1.0494
1159 1.04932
1160 1.04923
1161 1.04915
1162 1.04907
1163 1.04898
1164 1.0489
1165 1.04882
1166 1.04874
1167 1.04866
1168 1.04858
1169 1.04849
1170 1.04841
1171 1.04833
1172 1.04825
1173 1.04817
1174 1.04809
1175 1.04801
1176 1.04793
1177 1.04785
1178 1.04777
1179 1.04769
1180 1.04762
1181 1.04754
1182 1.04746
1183 1.04738
1184 1.0473
1185 1.04722
1186 1.04715
1187 1.04707
1188 1.04699
1189 1.04691
1190 1.04684
1191 1.04676
1192 1.04668
1193 1.04661
1194 1.04653
1195 1.04646
1196 1.04638
1197 1.0463
1198 1.04623
1199 1.04615
1200 1.04608
1201 1.046
1202 1.04593
1203 1.04585
1204 1.04578
1205 1.0457
1206 1.04563
1207 1.04556
1208 1.04548
1209 1.04541
1210 1.04534
1211 1.04526
1212 1.04519
1213 1.04512
1214 1.04504
1215 1.04497
1216 1.0449
1217 1.04483
1218 1.04476
1219 1.04468
1220 1.04461
1221 1.04454
1222 1.04447
1223 1.0444
1224 1.04433
1225 1.04426
1226 1.04419
1227 1.04412
1228 1.04405
1229 1.04398
1230 1.04391
1231 1.04384
1232 1.04377
1233 1.0437
1234 1.04363
1235 1.04356
1236 1.04349
1237 1.04342
1238 1.04335
1239 1.04328
1240 1.04321
1241 1.04315
1242 1.04308
1243 1.04301
1244 1.04294
1245 1.04288
1246 1.04281
1247 1.04274
1248 1.04267
1249 1.04261
1250 1.04254
1251 1.04247
1252 1.04241
1253 1.04234
1254 1.04228
1255 1.04221
1256 1.04214
1257 1.04208
1258 1.04201
1259 1.04195
1260 1.04188
1261 1.04182
1262 1.04175
1263 1.04169
1264 1.04162
1265 1.04156
1266 1.04149
1267 1.04143
1268 1.04137
1269 1.0413
1270 1.04124
1271 1.04117
1272 1.04111
1273 1.04105
1274 1.04098
1275 1.04092
1276 1.04086
1277 1.0408
1278 1.04073
1279 1.04067
1280 1.04061
1281 1.04055
1282 1.04048
1283 1.04042
1284 1.04036
1285 1.0403
1286 1.04024
1287 1.04018
1288 1.04012
1289 1.04006
1290 1.03999
1291 1.03993
1292 1.03987
1293 1.03981
1294 1.03975
1295 1.03969
1296 1.03963
1297 1.03957
1298 1.03951
1299 1.03945
1300 1.03939
1301 1.03933
1302 1.03927
1303 1.03922
1304 1.03916
1305 1.0391
1306 1.03904
1307 1.03898
1308 1.03892
1309 1.03886
1310 1.03881
1311 1.03875
1312 1.03869
1313 1.03863
1314 1.03857
1315 1.03852
1316 1.03846
1317 1.0384
1318 1.03834
1319 1.03829
1320 1.03823
1321 1.03817
1322 1.03812
1323 1.03806
1324 1.038
1325 1.03795
1326 1.03789
1327 1.03784
1328 1.03778
1329 1.03772
1330 1.03767
1331 1.03761
1332 1.03756
1333 1.0375
1334 1.03745
1335 1.03739
1336 1.03734
1337 1.03728
1338 1.03723
1339 1.03717
1340 1.03712
1341 1.03706
1342 1.03701
1343 1.03696
1344 1.0369
1345 1.03685
1346 1.03679
1347 1.03674
1348 1.03669
1349 1.03663
1350 1.03658
1351 1.03653
1352 1.03647
1353 1.03642
1354 1.03637
1355 1.03632
1356 1.03626
1357 1.03621
1358 1.03616
1359 1.03611
1360 1.03605
1361 1.036
1362 1.03595
1363 1.0359
1364 1.03585
1365 1.0358
1366 1.03574
1367 1.03569
1368 1.03564
1369 1.03559
1370 1.03554
1371 1.03549
1372 1.03544
1373 1.03539
1374 1.03534
1375 1.03529
1376 1.03523
1377 1.03518
1378 1.03513
1379 1.03508
1380 1.03503
1381 1.03498
1382 1.03493
1383 1.03489
1384 1.03484
1385 1.03479
1386 1.03474
1387 1.03469
1388 1.03464
1389 1.03459
1390 1.03454
1391 1.03449
1392 1.03444
1393 1.03439
1394 1.03435
1395 1.0343
1396 1.03425
1397 1.0342
1398 1.03415
1399 1.03411
1400 1.03406
1401 1.03401
1402 1.03396
1403 1.03391
1404 1.03387
1405 1.03382
1406 1.03377
1407 1.03372
1408 1.03368
1409 1.03363
1410 1.03358
1411 1.03354
1412 1.03349
1413 1.03344
1414 1.0334
1415 1.03335
1416 1.0333
1417 1.03326
1418 1.03321
1419 1.03317
1420 1.03312
1421 1.03307
1422 1.03303
1423 1.03298
1424 1.03294
1425 1.03289
1426 1.03285
1427 1.0328
1428 1.03276
1429 1.03271
1430 1.03267
1431 1.03262
1432 1.03258
1433 1.03253
1434 1.03249
1435 1.03244
1436 1.0324
1437 1.03235
1438 1.03231
1439 1.03226
1440 1.03222
1441 1.03218
1442 1.03213
1443 1.03209
1444 1.03205
1445 1.032
1446 1.03196
1447 1.03191
1448 1.03187
1449 1.03183
1450 1.03178
1451 1.03174
1452 1.0317
1453 1.03166
1454 1.03161
1455 1.03157
1456 1.03153
1457 1.03148
1458 1.03144
1459 1.0314
1460 1.03136
1461 1.03132
1462 1.03127
1463 1.03123
1464 1.03119
1465 1.03115
1466 1.03111
1467 1.03106
1468 1.03102
1469 1.03098
1470 1.03094
1471 1.0309
1472 1.03086
1473 1.03081
1474 1.03077
1475 1.03073
1476 1.03069
1477 1.03065
1478 1.03061
1479 1.03057
1480 1.03053
1481 1.03049
1482 1.03045
1483 1.03041
1484 1.03037
1485 1.03033
1486 1.03029
1487 1.03025
1488 1.03021
1489 1.03017
1490 1.03013
1491 1.03009
1492 1.03005
1493 1.03001
1494 1.02997
1495 1.02993
1496 1.02989
1497 1.02985
1498 1.02981
1499 1.02977
1500 1.02973
1501 1.02969
1502 1.02965
1503 1.02961
1504 1.02958
1505 1.02954
1506 1.0295
1507 1.02946
1508 1.02942
1509 1.02938
1510 1.02934
1511 1.02931
1512 1.02927
1513 1.02923
1514 1.02919
1515 1.02915
1516 1.02912
1517 1.02908
1518 1.02904
1519 1.029
1520 1.02897
1521 1.02893
1522 1.02889
1523 1.02885
1524 1.02882
1525 1.02878
1526 1.02874
1527 1.0287
1528 1.02867
1529 1.02863
1530 1.02859
1531 1.02856
1532 1.02852
1533 1.02848
1534 1.02845
1535 1.02841
1536 1.02837
1537 1.02834
1538 1.0283
1539 1.02826
1540 1.02823
1541 1.02819
1542 1.02816
1543 1.02812
1544 1.02808
1545 1.02805
1546 1.02801
1547 1.02798
1548 1.02794
1549 1.02791
1550 1.02787
1551 1.02783
1552 1.0278
1553 1.02776
1554 1.02773
1555 1.02769
1556 1.02766
1557 1.02762
1558 1.02759
1559 1.02755
1560 1.02752
1561 1.02748
1562 1.02745
1563 1.02741
1564 1.02738
1565 1.02735
1566 1.02731
1567 1.02728
1568 1.02724
1569 1.02721
1570 1.02717
1571 1.02714
1572 1.02711
1573 1.02707
1574 1.02704
1575 1.027
1576 1.02697
1577 1.02694
1578 1.0269
1579 1.02687
1580 1.02684
1581 1.0268
1582 1.02677
1583 1.02674
1584 1.0267
1585 1.02667
1586 1.02664
1587 1.0266
1588 1.02657
1589 1.02654
1590 1.0265
1591 1.02647
1592 1.02644
1593 1.02641
1594 1.02637
1595 1.02634
1596 1.02631
1597 1.02627
1598 1.02624
1599 1.02621
1600 1.02618
1601 1.02615
1602 1.02611
1603 1.02608
1604 1.02605
1605 1.02602
1606 1.02598
1607 1.02595
1608 1.02592
1609 1.02589
1610 1.02586
1611 1.02583
1612 1.02579
1613 1.02576
1614 1.02573
1615 1.0257
1616 1.02567
1617 1.02564
1618 1.02561
1619 1.02557
1620 1.02554
1621 1.02551
1622 1.02548
1623 1.02545
1624 1.02542
1625 1.02539
1626 1.02536
1627 1.02533
1628 1.0253
1629 1.02527
1630 1.02523
1631 1.0252
