### FSI tabel with 3He Potential (2-Gauss potential) #####
10 12.2793
20 11.2232
30 9.8432
40 8.43763
50 7.1756
60 6.11485
70 5.25176
80 4.55884
90 4.004
100 3.55824
110 3.19778
120 2.90396
130 2.66239
140 2.46205
150 2.29449
160 2.15321
170 2.03318
180 1.93046
190 1.84196
200 1.76525
210 1.69836
220 1.63971
230 1.58803
240 1.54228
